400,0.3802
401,0.3776
402,0.3721
403,0.3679
404,0.3648
405,0.3588
406,0.3568
407,0.3527
408,0.3491
409,0.3453
410,0.3417
411,0.3383
412,0.3347
413,0.3321
414,0.3294
415,0.3277
416,0.3255
417,0.3228
418,0.3202
419,0.3169
420,0.3152
421,0.3146
422,0.3105
423,0.3083
424,0.3045
425,0.3030
426,0.2976
427,0.2945
428,0.2929
429,0.2889
430,0.2853
431,0.2820
432,0.2782
433,0.2768
434,0.2732
435,0.2717
436,0.2697
437,0.2658
438,0.2640
439,0.2612
440,0.2594
441,0.2567
442,0.2533
443,0.2507
444,0.2488
445,0.2462
446,0.2426
447,0.2414
448,0.2389
449,0.2357
450,0.2346
451,0.2312
452,0.2278
453,0.2248
454,0.2224
455,0.2204
456,0.2180
457,0.2149
458,0.2125
459,0.2110
460,0.2096
461,0.2073
462,0.2061
463,0.2043
464,0.2006
465,0.1990
466,0.1970
467,0.1947
468,0.1921
469,0.1906
470,0.1877
471,0.1851
472,0.1832
473,0.1815
474,0.1798
475,0.1780
476,0.1761
477,0.1743
478,0.1733
479,0.1712
480,0.1693
481,0.1674
482,0.1654
483,0.1630
484,0.1613
485,0.1599
486,0.1572
487,0.1558
488,0.1543
489,0.1529
490,0.1506
491,0.1493
492,0.1480
493,0.1464
494,0.1447
495,0.1438
496,0.1421
497,0.1408
498,0.1398
499,0.1384
500,0.1363
501,0.1352
502,0.1341
503,0.1323
504,0.1309
505,0.1292
506,0.1277
507,0.1262
508,0.1250
509,0.1235
510,0.1217
511,0.1203
512,0.1191
513,0.1176
514,0.1165
515,0.1154
516,0.1143
517,0.1128
518,0.1117
519,0.1106
520,0.1093
521,0.1083
522,0.1073
523,0.1057
524,0.1047
525,0.1038
526,0.1026
527,0.1016
528,0.1007
529,0.0999
530,0.0987
531,0.0978
532,0.0970
533,0.0957
534,0.0947
535,0.0939
536,0.0923
537,0.0911
538,0.0899
539,0.0882
540,0.0871
541,0.0860
542,0.0843
543,0.0830
544,0.0820
545,0.0811
546,0.0805
547,0.0799
548,0.0792
549,0.0789
550,0.0786
551,0.0785
552,0.0782
553,0.0780
554,0.0775
555,0.0770
556,0.0766
557,0.0761
558,0.0754
559,0.0746
560,0.0739
561,0.0729
562,0.0724
563,0.0719
564,0.0712
565,0.0708
566,0.0704
567,0.0699
568,0.0695
569,0.0693
570,0.0686
571,0.0682
572,0.0678
573,0.0671
574,0.0666
575,0.0659
576,0.0654
577,0.0649
578,0.0642
579,0.0636
580,0.0631
581,0.0624
582,0.0618
583,0.0615
584,0.0609
585,0.0607
586,0.0605
587,0.0600
588,0.0597
589,0.0593
590,0.0591
591,0.0588
592,0.0586
593,0.0582
594,0.0579
595,0.0577
596,0.0573
597,0.0571
598,0.0568
599,0.0565
600,0.0564
601,0.0561
602,0.0559
603,0.0557
604,0.0553
605,0.0551
606,0.0548
607,0.0540
608,0.0534
609,0.0525
610,0.0521
611,0.0518
612,0.0513
613,0.0511
614,0.0511
615,0.0515
616,0.0518
617,0.0522
618,0.0522
619,0.0523
620,0.0525
621,0.0526
622,0.0525
623,0.0523
624,0.0522
625,0.0521
626,0.0522
627,0.0521
628,0.0518
629,0.0516
630,0.0516
631,0.0517
632,0.0518
633,0.0519
634,0.0520
635,0.0521
636,0.0523
637,0.0524
638,0.0524
639,0.0523
640,0.0523
641,0.0524
642,0.0524
643,0.0522
644,0.0521
645,0.0522
646,0.0522
647,0.0522
648,0.0521
649,0.0523
650,0.0520
651,0.0523
652,0.0525
653,0.0524
654,0.0524
655,0.0526
656,0.0525
657,0.0525
658,0.0526
659,0.0527
660,0.0526
661,0.0530
662,0.0530
663,0.0530
664,0.0534
665,0.0534
666,0.0537
667,0.0538
668,0.0537
669,0.0536
670,0.0537
671,0.0538
672,0.0538
673,0.0540
674,0.0541
675,0.0542
676,0.0548
677,0.0548
678,0.0551
679,0.0552
680,0.0556
681,0.0558
682,0.0560
683,0.0562
684,0.0563
685,0.0567
686,0.0568
687,0.0571
688,0.0573
689,0.0576
690,0.0579
691,0.0579
692,0.0582
693,0.0584
694,0.0585
695,0.0587
696,0.0589
697,0.0590
698,0.0593
699,0.0597
700,0.0596
701,0.0600
702,0.0602
703,0.0605
704,0.0605
705,0.0607
706,0.0607
707,0.0608
708,0.0614
709,0.0616
710,0.0616
711,0.0622
712,0.0623
713,0.0627
714,0.0628
715,0.0631
716,0.0631
717,0.0632
718,0.0637
719,0.0638
720,0.0641
721,0.0641
722,0.0647
723,0.0647
724,0.0653
725,0.0653
726,0.0658
727,0.0660
728,0.0666
729,0.0670
730,0.0672
731,0.0674
732,0.0677
733,0.0683
734,0.0684
735,0.0687
736,0.0689
737,0.0691
738,0.0693
739,0.0696
740,0.0697
741,0.0698
742,0.0699
743,0.0701
744,0.0703
745,0.0705
746,0.0713
747,0.0717
748,0.0721
749,0.0724
750,0.0728
751,0.0730
752,0.0736
753,0.0739
754,0.0742
755,0.0744
756,0.0751
757,0.0754
758,0.0759
759,0.0764
760,0.0766
761,0.0768
762,0.0770
763,0.0773
764,0.0776
765,0.0780
766,0.0781
767,0.0783
768,0.0786
769,0.0790
770,0.0789
771,0.0790
772,0.0789
773,0.0789
774,0.0791
775,0.0793
776,0.0794
777,0.0799
778,0.0802
779,0.0809
780,0.0809
781,0.0816
782,0.0818
783,0.0827
784,0.0830
785,0.0834
786,0.0837
787,0.0841
788,0.0845
789,0.0851
790,0.0850
791,0.0850
792,0.0853
793,0.0855
794,0.0856
795,0.0863
796,0.0864
797,0.0868
798,0.0875
799,0.0877
800,0.0886
801,0.0885
802,0.0888
803,0.0888
804,0.0895
805,0.0896
806,0.0904
807,0.0906
808,0.0908
809,0.0912
810,0.0915
811,0.0915
812,0.0919
813,0.0919
814,0.0920
815,0.0924
816,0.0931
817,0.0934
818,0.0933
819,0.0941
820,0.0945
821,0.0950
822,0.0953
823,0.0959
824,0.0958
825,0.0966
826,0.0969
827,0.0971
828,0.0968
829,0.0971
830,0.0976
831,0.0980
832,0.0980
833,0.0985
834,0.0985
835,0.0990
836,0.0997
837,0.1002
838,0.1004
839,0.1005
840,0.1009
841,0.1020
842,0.1016
843,0.1018
844,0.1023
845,0.1026
846,0.1032
847,0.1035
848,0.1037
849,0.1040
850,0.1047
851,0.1052
852,0.1056
853,0.1059
854,0.1056
855,0.1065
856,0.1072
857,0.1076
858,0.1077
859,0.1075
860,0.1078
861,0.1088
862,0.1094
863,0.1092
864,0.1095
865,0.1093
866,0.1096
867,0.1100
868,0.1100
869,0.1101
870,0.1106
871,0.1101
872,0.1104
873,0.1113
874,0.1123
875,0.1127
876,0.1127
877,0.1127
878,0.1133
879,0.1136
880,0.1140
881,0.1139
882,0.1137
883,0.1143
884,0.1146
885,0.1140
886,0.1156
887,0.1159
888,0.1159
889,0.1167
890,0.1161
891,0.1176
892,0.1185
893,0.1184
894,0.1175
895,0.1183
896,0.1172
897,0.1181
898,0.1189
899,0.1184
900,0.1188
901,0.1190
902,0.1186
903,0.1192
904,0.1200
905,0.1198
906,0.1187
907,0.1193
908,0.1198
909,0.1209
910,0.1217
911,0.1221
912,0.1219
913,0.1233
914,0.1246
915,0.1243
916,0.1239
917,0.1235
918,0.1243
919,0.1246
920,0.1248
921,0.1258
922,0.1262
923,0.1276
924,0.1281
925,0.1283
926,0.1290
927,0.1292
928,0.1282
929,0.1274
930,0.1268
931,0.1264
932,0.1269
933,0.1267
934,0.1253
935,0.1258
936,0.1257
937,0.1271
938,0.1243
939,0.1213
940,0.1214
941,0.1225
942,0.1229
943,0.1207
944,0.1150
945,0.1168
946,0.1265
947,0.1299
948,0.1268
949,0.1269
950,0.1329
951,0.1363
952,0.1338
953,0.1316
954,0.1268
955,0.1259
956,0.1284
957,0.1300
958,0.1270
959,0.1307
960,0.1333
961,0.1361
962,0.1391
963,0.1403
964,0.1385
965,0.1397
966,0.1412
967,0.1408
968,0.1413
969,0.1418
970,0.1427
971,0.1413
972,0.1427
973,0.1455
974,0.1418
975,0.1416
976,0.1416
977,0.1406
978,0.1435
979,0.1428
980,0.1417
981,0.1459
982,0.1455
983,0.1451
984,0.1467
985,0.1470
986,0.1452
987,0.1427
988,0.1405
989,0.1424
990,0.1415
991,0.1385
992,0.1394
993,0.1426
994,0.1423
995,0.1428
996,0.1393
997,0.1448
998,0.1436
999,0.1415
1000,0.1402
1001,0.1406
1002,0.1426
1003,0.1491
1004,0.1540
1005,0.1550
1006,0.1515
1007,0.1582
1008,0.1613
1009,0.1613
1010,0.1572
1011,0.1471
1012,0.1486
1013,0.1532
1014,0.1473
1015,0.1459
1016,0.1431
1017,0.1385
1018,0.1357
1019,0.1381
1020,0.1343
1021,0.1272
1022,0.1299
1023,0.1365
1024,0.1457
1025,0.1522
1026,0.1483
1027,0.1532
1028,0.1588
1029,0.1562
1030,0.1486
1031,0.1461
1032,0.1490
1033,0.1414
1034,0.1449
1035,0.1499
1036,0.1472
1037,0.1541
1038,0.1578
1039,0.1001
1040,0.4300
1041,0.2155
