400,0.3957
401,0.3897
402,0.3954
403,0.3958
404,0.3969
405,0.3890
406,0.4002
407,0.3896
408,0.3859
409,0.3920
410,0.3779
411,0.3789
412,0.3792
413,0.3686
414,0.3656
415,0.3670
416,0.3628
417,0.3629
418,0.3643
419,0.3606
420,0.3492
421,0.3550
422,0.3543
423,0.3484
424,0.3421
425,0.3417
426,0.3347
427,0.3273
428,0.3198
429,0.3187
430,0.3166
431,0.3128
432,0.3108
433,0.3053
434,0.2999
435,0.2967
436,0.3048
437,0.3008
438,0.2931
439,0.2904
440,0.2863
441,0.2818
442,0.2804
443,0.2787
444,0.2804
445,0.2726
446,0.2662
447,0.2678
448,0.2650
449,0.2732
450,0.2755
451,0.2785
452,0.2719
453,0.2615
454,0.2645
455,0.2581
456,0.2528
457,0.2493
458,0.2401
459,0.2343
460,0.2299
461,0.2240
462,0.2240
463,0.2262
464,0.2258
465,0.2215
466,0.2178
467,0.2200
468,0.2178
469,0.2160
470,0.2149
471,0.2056
472,0.2030
473,0.1999
474,0.2000
475,0.1985
476,0.1983
477,0.1961
478,0.1967
479,0.2004
480,0.1973
481,0.1941
482,0.1914
483,0.1896
484,0.1894
485,0.1927
486,0.1903
487,0.1943
488,0.1900
489,0.1904
490,0.1847
491,0.1826
492,0.1809
493,0.1759
494,0.1741
495,0.1733
496,0.1694
497,0.1677
498,0.1686
499,0.1709
500,0.1724
501,0.1721
502,0.1737
503,0.1709
504,0.1692
505,0.1674
506,0.1651
507,0.1648
508,0.1623
509,0.1599
510,0.1565
511,0.1543
512,0.1502
513,0.1523
514,0.1516
515,0.1514
516,0.1491
517,0.1481
518,0.1459
519,0.1484
520,0.1500
521,0.1454
522,0.1467
523,0.1443
524,0.1437
525,0.1434
526,0.1441
527,0.1417
528,0.1388
529,0.1391
530,0.1357
531,0.1356
532,0.1360
533,0.1319
534,0.1288
535,0.1283
536,0.1309
537,0.1299
538,0.1296
539,0.1320
540,0.1285
541,0.1290
542,0.1292
543,0.1307
544,0.1276
545,0.1228
546,0.1221
547,0.1243
548,0.1240
549,0.1236
550,0.1215
551,0.1211
552,0.1195
553,0.1196
554,0.1212
555,0.1170
556,0.1167
557,0.1151
558,0.1135
559,0.1129
560,0.1137
561,0.1104
562,0.1094
563,0.1100
564,0.1143
565,0.1140
566,0.1166
567,0.1169
568,0.1177
569,0.1191
570,0.1196
571,0.1185
572,0.1155
573,0.1149
574,0.1144
575,0.1136
576,0.1119
577,0.1089
578,0.1070
579,0.1077
580,0.1078
581,0.1052
582,0.1052
583,0.1063
584,0.1081
585,0.1097
586,0.1116
587,0.1057
588,0.1065
589,0.1069
590,0.1073
591,0.1054
592,0.1049
593,0.1046
594,0.1030
595,0.1039
596,0.1023
597,0.1021
598,0.1004
599,0.0987
600,0.0976
601,0.0978
602,0.0981
603,0.0962
604,0.0914
605,0.0892
606,0.0888
607,0.0889
608,0.0874
609,0.0859
610,0.0855
611,0.0872
612,0.0899
613,0.0922
614,0.0921
615,0.0938
616,0.0958
617,0.0938
618,0.0944
619,0.0924
620,0.0964
621,0.0960
622,0.0953
623,0.0933
624,0.0924
625,0.0939
626,0.0915
627,0.0926
628,0.0841
629,0.0826
630,0.0860
631,0.0855
632,0.0826
633,0.0804
634,0.0832
635,0.0852
636,0.0876
637,0.0846
638,0.0800
639,0.0788
640,0.0792
641,0.0808
642,0.0796
643,0.0782
644,0.0803
645,0.0842
646,0.0825
647,0.0816
648,0.0845
649,0.0874
650,0.0884
651,0.0897
652,0.0941
653,0.0942
654,0.0984
655,0.0997
656,0.0994
657,0.0962
658,0.0945
659,0.0940
660,0.0871
661,0.0843
662,0.0852
663,0.0857
664,0.0834
665,0.0890
666,0.0851
667,0.0885
668,0.0909
669,0.0903
670,0.0899
671,0.0919
672,0.0929
673,0.0902
674,0.0897
675,0.0852
676,0.0898
677,0.0891
678,0.0910
679,0.0875
680,0.0880
681,0.0873
682,0.0908
683,0.0892
684,0.0873
685,0.0883
686,0.0883
687,0.0908
688,0.0958
689,0.0953
690,0.0948
691,0.0965
692,0.0956
693,0.0941
694,0.0917
695,0.0872
696,0.0854
697,0.0848
698,0.0862
699,0.0873
700,0.0887
701,0.0889
702,0.0927
703,0.0942
704,0.0912
705,0.0901
706,0.0932
707,0.0945
708,0.0907
709,0.0904
710,0.0915
711,0.0944
712,0.0966
713,0.0934
714,0.0912
715,0.0885
716,0.0896
717,0.0909
718,0.0880
719,0.0866
720,0.0875
721,0.0918
722,0.0912
723,0.0908
724,0.0917
725,0.0912
726,0.0947
727,0.0954
728,0.0990
729,0.1015
730,0.1027
731,0.1060
732,0.1087
733,0.1055
734,0.1041
735,0.1021
736,0.1019
737,0.1031
738,0.1062
739,0.1061
740,0.1065
741,0.1074
742,0.1062
743,0.1091
744,0.1134
745,0.1144
746,0.1105
747,0.1080
748,0.1066
749,0.1060
750,0.1010
751,0.0980
752,0.0941
753,0.0928
754,0.0935
755,0.0945
756,0.0947
757,0.0936
758,0.1011
759,0.1011
760,0.1011
761,0.1045
762,0.1040
763,0.1042
764,0.1042
765,0.1063
766,0.1074
767,0.1053
768,0.1035
769,0.1038
770,0.1017
771,0.0991
772,0.0971
773,0.0901
774,0.0926
775,0.0939
776,0.0930
777,0.0987
778,0.0997
779,0.1082
780,0.1107
781,0.1165
782,0.1168
783,0.1101
784,0.1094
785,0.1055
786,0.1014
787,0.0996
788,0.1009
789,0.1020
790,0.1056
791,0.1140
792,0.1185
793,0.1164
794,0.1203
795,0.1206
796,0.1208
797,0.1166
798,0.1175
799,0.1197
800,0.1193
801,0.1180
802,0.1192
803,0.1237
804,0.1231
805,0.1262
806,0.1233
807,0.1261
808,0.1283
809,0.1357
810,0.1251
811,0.1236
812,0.1189
813,0.1164
814,0.1192
815,0.1152
816,0.1146
817,0.1128
818,0.1172
819,0.1243
820,0.1260
821,0.1221
822,0.1279
823,0.1280
824,0.1308
825,0.1287
826,0.1282
827,0.1255
828,0.1261
829,0.1281
830,0.1243
831,0.1189
832,0.1187
833,0.1173
834,0.1115
835,0.1084
836,0.1047
837,0.1007
838,0.1018
839,0.1069
840,0.1074
841,0.1032
842,0.1110
843,0.1139
844,0.1159
845,0.1183
846,0.1124
847,0.1113
848,0.1150
849,0.1140
850,0.1148
851,0.1207
852,0.1243
853,0.1309
854,0.1349
855,0.1366
856,0.1374
857,0.1451
858,0.1417
859,0.1430
860,0.1418
861,0.1402
862,0.1347
863,0.1359
864,0.1401
865,0.1416
866,0.1393
867,0.1350
868,0.1383
869,0.1354
870,0.1439
871,0.1462
872,0.1475
873,0.1477
874,0.1398
875,0.1250
876,0.1254
877,0.1284
878,0.1165
879,0.1159
880,0.1088
881,0.1182
882,0.1301
883,0.1380
884,0.1377
885,0.1401
886,0.1368
887,0.1377
888,0.1431
889,0.1334
890,0.1408
891,0.1428
892,0.1421
893,0.1435
894,0.1396
895,0.1405
896,0.1375
897,0.1381
898,0.1410
899,0.1388
900,0.1374
901,0.1540
902,0.1537
903,0.1488
904,0.1584
905,0.1598
906,0.1613
907,0.1620
908,0.1529
909,0.1402
910,0.1397
911,0.1370
912,0.1294
913,0.1279
914,0.1272
915,0.1268
916,0.1321
917,0.1392
918,0.1425
919,0.1464
920,0.1453
921,0.1484
922,0.1493
923,0.1502
924,0.1478
925,0.1527
926,0.1582
927,0.1538
928,0.1528
929,0.1565
930,0.1579
931,0.1729
932,0.1685
933,0.1718
934,0.1721
935,0.1774
936,0.1916
937,0.1807
938,0.1753
939,0.1716
940,0.1540
941,0.1133
942,0.1156
943,0.1106
944,0.1339
945,0.1110
946,0.1195
947,0.1397
948,0.1553
949,0.1724
950,0.1727
951,0.1655
952,0.1711
953,0.1608
954,0.1545
955,0.1626
956,0.1581
957,0.1440
958,0.1224
959,0.1416
960,0.1467
961,0.1641
962,0.1525
963,0.1457
964,0.1473
965,0.1653
966,0.1343
967,0.1439
968,0.1526
969,0.1542
970,0.1548
971,0.1688
972,0.1561
973,0.1962
974,0.1703
975,0.1257
976,0.1291
977,0.1219
978,0.1087
979,0.1206
980,0.0969
981,0.1171
982,0.1417
983,0.1485
984,0.1528
985,0.1615
986,0.1559
987,0.1744
988,0.1563
989,0.1496
990,0.1439
991,0.1438
992,0.1489
993,0.1453
994,0.1464
995,0.1540
996,0.1777
997,0.1830
998,0.2159
999,0.2095
1000,0.2254
1001,0.1974
1002,0.2066
1003,0.1855
1004,0.1809
1005,0.1716
1006,0.1522
1007,0.1544
1008,0.1722
1009,0.1641
1010,0.2026
1011,0.1922
1012,0.1666
1013,0.1811
1014,0.1949
1015,0.1767
1016,0.1908
1017,0.1782
1018,0.1892
1019,0.2029
1020,0.1761
1021,0.1506
1022,0.1515
1023,0.1183
1024,0.0808
1025,0.1021
1026,0.1086
1027,0.1526
1028,0.1505
1029,0.1554
1030,0.1756
1031,0.1688
1032,0.1673
1033,0.1916
1034,0.1712
1035,0.2589
1036,0.2701
1037,0.2372
1038,0.2500
1039,0.3380
1040,0
1041,0.0748
