400,0.2473
401,0.2531
402,0.2577
403,0.2605
404,0.2661
405,0.2725
406,0.2778
407,0.2812
408,0.2846
409,0.2891
410,0.2968
411,0.3005
412,0.3040
413,0.3081
414,0.3136
415,0.3180
416,0.3224
417,0.3254
418,0.3330
419,0.3382
420,0.3429
421,0.3468
422,0.3510
423,0.3534
424,0.3560
425,0.3587
426,0.3622
427,0.3638
428,0.3650
429,0.3660
430,0.3703
431,0.3725
432,0.3743
433,0.3775
434,0.3797
435,0.3815
436,0.3831
437,0.3859
438,0.3895
439,0.3910
440,0.3917
441,0.3937
442,0.3958
443,0.3963
444,0.3982
445,0.3977
446,0.3993
447,0.3999
448,0.4003
449,0.4006
450,0.4005
451,0.4007
452,0.4004
453,0.4022
454,0.4013
455,0.4018
456,0.4028
457,0.4029
458,0.4027
459,0.4024
460,0.4025
461,0.4020
462,0.4020
463,0.4019
464,0.3997
465,0.3989
466,0.3981
467,0.3972
468,0.3964
469,0.3955
470,0.3941
471,0.3926
472,0.3906
473,0.3890
474,0.3875
475,0.3868
476,0.3853
477,0.3834
478,0.3823
479,0.3802
480,0.3792
481,0.3777
482,0.3757
483,0.3738
484,0.3712
485,0.3693
486,0.3666
487,0.3645
488,0.3626
489,0.3609
490,0.3585
491,0.3567
492,0.3542
493,0.3513
494,0.3487
495,0.3465
496,0.3428
497,0.3404
498,0.3371
499,0.3343
500,0.3307
501,0.3284
502,0.3252
503,0.3215
504,0.3187
505,0.3158
506,0.3133
507,0.3092
508,0.3063
509,0.3032
510,0.2995
511,0.2968
512,0.2936
513,0.2897
514,0.2865
515,0.2839
516,0.2812
517,0.2772
518,0.2745
519,0.2717
520,0.2669
521,0.2635
522,0.2609
523,0.2562
524,0.2535
525,0.2506
526,0.2459
527,0.2424
528,0.2396
529,0.2371
530,0.2323
531,0.2292
532,0.2259
533,0.2208
534,0.2176
535,0.2148
536,0.2096
537,0.2059
538,0.2023
539,0.1973
540,0.1936
541,0.1901
542,0.1851
543,0.1820
544,0.1792
545,0.1747
546,0.1719
547,0.1691
548,0.1653
549,0.1626
550,0.1599
551,0.1573
552,0.1530
553,0.1504
554,0.1478
555,0.1437
556,0.1410
557,0.1384
558,0.1346
559,0.1319
560,0.1296
561,0.1259
562,0.1233
563,0.1211
564,0.1175
565,0.1151
566,0.1127
567,0.1096
568,0.1072
569,0.1049
570,0.1018
571,0.0994
572,0.0974
573,0.0943
574,0.0920
575,0.0889
576,0.0870
577,0.0850
578,0.0823
579,0.0805
580,0.0788
581,0.0763
582,0.0750
583,0.0734
584,0.0712
585,0.0699
586,0.0685
587,0.0665
588,0.0652
589,0.0639
590,0.0620
591,0.0610
592,0.0599
593,0.0584
594,0.0574
595,0.0563
596,0.0555
597,0.0548
598,0.0538
599,0.0531
600,0.0524
601,0.0516
602,0.0512
603,0.0507
604,0.0502
605,0.0498
606,0.0493
607,0.0484
608,0.0477
609,0.0468
610,0.0462
611,0.0459
612,0.0455
613,0.0454
614,0.0456
615,0.0463
616,0.0471
617,0.0480
618,0.0487
619,0.0493
620,0.0502
621,0.0508
622,0.0514
623,0.0522
624,0.0527
625,0.0538
626,0.0544
627,0.0550
628,0.0559
629,0.0565
630,0.0573
631,0.0584
632,0.0593
633,0.0607
634,0.0617
635,0.0626
636,0.0641
637,0.0652
638,0.0661
639,0.0677
640,0.0686
641,0.0699
642,0.0710
643,0.0720
644,0.0736
645,0.0748
646,0.0766
647,0.0776
648,0.0788
649,0.0808
650,0.0820
651,0.0841
652,0.0852
653,0.0864
654,0.0884
655,0.0896
656,0.0917
657,0.0929
658,0.0943
659,0.0963
660,0.0978
661,0.0997
662,0.1010
663,0.1025
664,0.1046
665,0.1059
666,0.1082
667,0.1095
668,0.1109
669,0.1131
670,0.1145
671,0.1167
672,0.1180
673,0.1195
674,0.1216
675,0.1231
676,0.1252
677,0.1267
678,0.1290
679,0.1304
680,0.1319
681,0.1340
682,0.1356
683,0.1377
684,0.1391
685,0.1412
686,0.1424
687,0.1439
688,0.1461
689,0.1479
690,0.1501
691,0.1515
692,0.1531
693,0.1552
694,0.1567
695,0.1590
696,0.1601
697,0.1616
698,0.1632
699,0.1654
700,0.1670
701,0.1684
702,0.1703
703,0.1717
704,0.1740
705,0.1751
706,0.1770
707,0.1781
708,0.1790
709,0.1809
710,0.1823
711,0.1841
712,0.1856
713,0.1877
714,0.1892
715,0.1911
716,0.1924
717,0.1937
718,0.1958
719,0.1971
720,0.1988
721,0.2001
722,0.2018
723,0.2033
724,0.2055
725,0.2065
726,0.2086
727,0.2099
728,0.2111
729,0.2126
730,0.2136
731,0.2155
732,0.2167
733,0.2190
734,0.2197
735,0.2213
736,0.2227
737,0.2244
738,0.2255
739,0.2270
740,0.2280
741,0.2290
742,0.2307
743,0.2316
744,0.2330
745,0.2345
746,0.2359
747,0.2373
748,0.2387
749,0.2395
750,0.2412
751,0.2423
752,0.2438
753,0.2446
754,0.2459
755,0.2466
756,0.2481
757,0.2485
758,0.2502
759,0.2510
760,0.2517
761,0.2530
762,0.2539
763,0.2553
764,0.2563
765,0.2575
766,0.2583
767,0.2597
768,0.2608
769,0.2622
770,0.2635
771,0.2649
772,0.2647
773,0.2662
774,0.2672
775,0.2681
776,0.2682
777,0.2694
778,0.2698
779,0.2713
780,0.2726
781,0.2730
782,0.2735
783,0.2746
784,0.2755
785,0.2755
786,0.2752
787,0.2761
788,0.2775
789,0.2787
790,0.2792
791,0.2806
792,0.2810
793,0.2828
794,0.2837
795,0.2840
796,0.2847
797,0.2855
798,0.2865
799,0.2867
800,0.2877
801,0.2881
802,0.2895
803,0.2900
804,0.2911
805,0.2921
806,0.2928
807,0.2937
808,0.2952
809,0.2957
810,0.2964
811,0.2975
812,0.2975
813,0.2985
814,0.2990
815,0.2996
816,0.2989
817,0.2986
818,0.2991
819,0.2990
820,0.2983
821,0.2991
822,0.3004
823,0.3006
824,0.3013
825,0.3016
826,0.3019
827,0.3028
828,0.3041
829,0.3035
830,0.3041
831,0.3042
832,0.3055
833,0.3061
834,0.3067
835,0.3069
836,0.3066
837,0.3065
838,0.3072
839,0.3070
840,0.3072
841,0.3085
842,0.3088
843,0.3085
844,0.3086
845,0.3083
846,0.3090
847,0.3106
848,0.3111
849,0.3109
850,0.3121
851,0.3128
852,0.3140
853,0.3142
854,0.3135
855,0.3138
856,0.3132
857,0.3147
858,0.3146
859,0.3145
860,0.3150
861,0.3152
862,0.3151
863,0.3155
864,0.3155
865,0.3152
866,0.3159
867,0.3161
868,0.3160
869,0.3166
870,0.3165
871,0.3172
872,0.3166
873,0.3161
874,0.3152
875,0.3156
876,0.3151
877,0.3155
878,0.3153
879,0.3159
880,0.3162
881,0.3164
882,0.3171
883,0.3180
884,0.3172
885,0.3171
886,0.3172
887,0.3171
888,0.3180
889,0.3179
890,0.3178
891,0.3174
892,0.3178
893,0.3188
894,0.3195
895,0.3199
896,0.3197
897,0.3193
898,0.3189
899,0.3197
900,0.3190
901,0.3183
902,0.3191
903,0.3186
904,0.3190
905,0.3189
906,0.3187
907,0.3190
908,0.3190
909,0.3175
910,0.3194
911,0.3189
912,0.3177
913,0.3170
914,0.3176
915,0.3173
916,0.3174
917,0.3158
918,0.3159
919,0.3155
920,0.3158
921,0.3164
922,0.3156
923,0.3172
924,0.3176
925,0.3171
926,0.3168
927,0.3165
928,0.3146
929,0.3156
930,0.3142
931,0.3126
932,0.3106
933,0.3116
934,0.3127
935,0.3144
936,0.3140
937,0.3151
938,0.3139
939,0.3154
940,0.3147
941,0.3061
942,0.3034
943,0.3055
944,0.3083
945,0.3078
946,0.3112
947,0.3120
948,0.3169
949,0.3202
950,0.3126
951,0.3141
952,0.3109
953,0.3117
954,0.3133
955,0.3135
956,0.3154
957,0.3147
958,0.3144
959,0.3104
960,0.3121
961,0.3065
962,0.3036
963,0.3023
964,0.3032
965,0.3032
966,0.3068
967,0.3065
968,0.3068
969,0.3034
970,0.3027
971,0.3016
972,0.2998
973,0.2993
974,0.2970
975,0.2964
976,0.2979
977,0.2980
978,0.2963
979,0.2982
980,0.2970
981,0.2972
982,0.2965
983,0.2972
984,0.2990
985,0.3011
986,0.2981
987,0.2993
988,0.3000
989,0.3042
990,0.3020
991,0.3029
992,0.3007
993,0.3010
994,0.2973
995,0.2944
996,0.2935
997,0.2921
998,0.2912
999,0.2899
1000,0.2906
1001,0.2936
1002,0.2894
1003,0.2850
1004,0.2872
1005,0.2856
1006,0.2835
1007,0.2851
1008,0.2891
1009,0.2911
1010,0.2931
1011,0.2898
1012,0.2900
1013,0.2950
1014,0.2903
1015,0.2891
1016,0.2876
1017,0.2842
1018,0.2890
1019,0.2949
1020,0.2949
1021,0.3007
1022,0.2992
1023,0.2966
1024,0.3012
1025,0.2919
1026,0.2893
1027,0.2886
1028,0.2822
1029,0.2818
1030,0.2910
1031,0.2885
1032,0.2994
1033,0.2844
1034,0.2877
1035,0.2843
1036,0.2816
1037,0.2741
1038,0.2713
1039,0.2855
1040,0.3001
1041,0.2441
