400,0.3186
401,0.3139
402,0.3030
403,0.3079
404,0.2988
405,0.2747
406,0.2729
407,0.2760
408,0.2692
409,0.2635
410,0.2664
411,0.2747
412,0.2823
413,0.2831
414,0.2883
415,0.2893
416,0.2794
417,0.2869
418,0.2814
419,0.2741
420,0.2704
421,0.2654
422,0.2574
423,0.2563
424,0.2545
425,0.2547
426,0.2488
427,0.2455
428,0.2527
429,0.2569
430,0.2646
431,0.2718
432,0.2796
433,0.2742
434,0.2776
435,0.2794
436,0.2792
437,0.2851
438,0.2782
439,0.2711
440,0.2712
441,0.2729
442,0.2723
443,0.2714
444,0.2769
445,0.2702
446,0.2705
447,0.2722
448,0.2720
449,0.2665
450,0.2724
451,0.2755
452,0.2714
453,0.2676
454,0.2720
455,0.2662
456,0.2642
457,0.2645
458,0.2668
459,0.2614
460,0.2643
461,0.2667
462,0.2658
463,0.2583
464,0.2615
465,0.2543
466,0.2512
467,0.2495
468,0.2487
469,0.2439
470,0.2427
471,0.2422
472,0.2431
473,0.2431
474,0.2421
475,0.2445
476,0.2484
477,0.2479
478,0.2462
479,0.2499
480,0.2468
481,0.2470
482,0.2445
483,0.2429
484,0.2431
485,0.2460
486,0.2465
487,0.2440
488,0.2449
489,0.2453
490,0.2466
491,0.2453
492,0.2436
493,0.2388
494,0.2403
495,0.2411
496,0.2433
497,0.2447
498,0.2434
499,0.2513
500,0.2515
501,0.2547
502,0.2521
503,0.2529
504,0.2514
505,0.2495
506,0.2520
507,0.2514
508,0.2531
509,0.2519
510,0.2512
511,0.2501
512,0.2500
513,0.2485
514,0.2469
515,0.2420
516,0.2386
517,0.2371
518,0.2346
519,0.2341
520,0.2320
521,0.2334
522,0.2328
523,0.2341
524,0.2363
525,0.2347
526,0.2366
527,0.2350
528,0.2327
529,0.2340
530,0.2337
531,0.2330
532,0.2291
533,0.2293
534,0.2307
535,0.2326
536,0.2333
537,0.2318
538,0.2290
539,0.2292
540,0.2280
541,0.2256
542,0.2218
543,0.2198
544,0.2216
545,0.2222
546,0.2234
547,0.2208
548,0.2247
549,0.2276
550,0.2293
551,0.2310
552,0.2286
553,0.2270
554,0.2271
555,0.2294
556,0.2298
557,0.2298
558,0.2313
559,0.2354
560,0.2383
561,0.2373
562,0.2395
563,0.2396
564,0.2395
565,0.2406
566,0.2404
567,0.2351
568,0.2337
569,0.2339
570,0.2369
571,0.2360
572,0.2332
573,0.2264
574,0.2247
575,0.2283
576,0.2258
577,0.2255
578,0.2210
579,0.2230
580,0.2259
581,0.2330
582,0.2333
583,0.2323
584,0.2336
585,0.2358
586,0.2379
587,0.2381
588,0.2384
589,0.2380
590,0.2371
591,0.2365
592,0.2349
593,0.2348
594,0.2337
595,0.2342
596,0.2334
597,0.2341
598,0.2359
599,0.2356
600,0.2366
601,0.2382
602,0.2421
603,0.2443
604,0.2497
605,0.2487
606,0.2483
607,0.2514
608,0.2534
609,0.2515
610,0.2489
611,0.2470
612,0.2423
613,0.2413
614,0.2418
615,0.2388
616,0.2371
617,0.2370
618,0.2363
619,0.2398
620,0.2427
621,0.2438
622,0.2417
623,0.2443
624,0.2434
625,0.2461
626,0.2489
627,0.2447
628,0.2414
629,0.2402
630,0.2422
631,0.2444
632,0.2487
633,0.2501
634,0.2467
635,0.2474
636,0.2462
637,0.2486
638,0.2483
639,0.2447
640,0.2421
641,0.2412
642,0.2415
643,0.2398
644,0.2431
645,0.2402
646,0.2407
647,0.2422
648,0.2413
649,0.2406
650,0.2437
651,0.2481
652,0.2488
653,0.2517
654,0.2537
655,0.2516
656,0.2511
657,0.2516
658,0.2488
659,0.2414
660,0.2396
661,0.2366
662,0.2385
663,0.2382
664,0.2408
665,0.2378
666,0.2377
667,0.2411
668,0.2421
669,0.2467
670,0.2468
671,0.2455
672,0.2444
673,0.2446
674,0.2470
675,0.2473
676,0.2477
677,0.2433
678,0.2417
679,0.2392
680,0.2375
681,0.2379
682,0.2368
683,0.2376
684,0.2354
685,0.2372
686,0.2388
687,0.2394
688,0.2430
689,0.2469
690,0.2519
691,0.2485
692,0.2472
693,0.2455
694,0.2443
695,0.2441
696,0.2417
697,0.2367
698,0.2328
699,0.2337
700,0.2368
701,0.2357
702,0.2324
703,0.2344
704,0.2354
705,0.2377
706,0.2343
707,0.2308
708,0.2275
709,0.2316
710,0.2314
711,0.2276
712,0.2264
713,0.2231
714,0.2248
715,0.2268
716,0.2213
717,0.2201
718,0.2201
719,0.2251
720,0.2268
721,0.2278
722,0.2304
723,0.2303
724,0.2267
725,0.2328
726,0.2318
727,0.2332
728,0.2367
729,0.2356
730,0.2316
731,0.2329
732,0.2354
733,0.2327
734,0.2310
735,0.2301
736,0.2295
737,0.2327
738,0.2351
739,0.2389
740,0.2368
741,0.2401
742,0.2411
743,0.2350
744,0.2316
745,0.2348
746,0.2316
747,0.2338
748,0.2334
749,0.2301
750,0.2259
751,0.2261
752,0.2265
753,0.2236
754,0.2245
755,0.2231
756,0.2236
757,0.2226
758,0.2262
759,0.2270
760,0.2274
761,0.2319
762,0.2330
763,0.2388
764,0.2392
765,0.2408
766,0.2413
767,0.2402
768,0.2356
769,0.2363
770,0.2315
771,0.2264
772,0.2258
773,0.2301
774,0.2258
775,0.2227
776,0.2242
777,0.2182
778,0.2204
779,0.2203
780,0.2204
781,0.2215
782,0.2198
783,0.2229
784,0.2265
785,0.2249
786,0.2249
787,0.2231
788,0.2221
789,0.2231
790,0.2250
791,0.2279
792,0.2260
793,0.2299
794,0.2313
795,0.2325
796,0.2351
797,0.2351
798,0.2381
799,0.2363
800,0.2392
801,0.2405
802,0.2418
803,0.2473
804,0.2459
805,0.2432
806,0.2403
807,0.2408
808,0.2409
809,0.2445
810,0.2382
811,0.2375
812,0.2444
813,0.2492
814,0.2487
815,0.2461
816,0.2488
817,0.2471
818,0.2519
819,0.2433
820,0.2376
821,0.2293
822,0.2354
823,0.2280
824,0.2218
825,0.2266
826,0.2281
827,0.2323
828,0.2409
829,0.2469
830,0.2536
831,0.2572
832,0.2594
833,0.2598
834,0.2539
835,0.2508
836,0.2458
837,0.2404
838,0.2325
839,0.2299
840,0.2291
841,0.2298
842,0.2267
843,0.2224
844,0.2277
845,0.2318
846,0.2291
847,0.2288
848,0.2261
849,0.2288
850,0.2306
851,0.2293
852,0.2202
853,0.2226
854,0.2236
855,0.2309
856,0.2270
857,0.2302
858,0.2296
859,0.2277
860,0.2388
861,0.2431
862,0.2380
863,0.2404
864,0.2403
865,0.2447
866,0.2419
867,0.2334
868,0.2319
869,0.2313
870,0.2305
871,0.2348
872,0.2395
873,0.2413
874,0.2499
875,0.2539
876,0.2507
877,0.2457
878,0.2531
879,0.2499
880,0.2510
881,0.2504
882,0.2437
883,0.2490
884,0.2481
885,0.2414
886,0.2334
887,0.2319
888,0.2295
889,0.2273
890,0.2250
891,0.2217
892,0.2172
893,0.2141
894,0.2209
895,0.2218
896,0.2106
897,0.2141
898,0.2176
899,0.2243
900,0.2196
901,0.2154
902,0.2062
903,0.2107
904,0.2147
905,0.2172
906,0.2190
907,0.2214
908,0.2253
909,0.2353
910,0.2380
911,0.2394
912,0.2323
913,0.2316
914,0.2299
915,0.2269
916,0.2279
917,0.2379
918,0.2391
919,0.2425
920,0.2537
921,0.2576
922,0.2620
923,0.2699
924,0.2670
925,0.2566
926,0.2537
927,0.2455
928,0.2447
929,0.2298
930,0.2149
931,0.2214
932,0.2194
933,0.2202
934,0.2286
935,0.2262
936,0.2295
937,0.2424
938,0.2411
939,0.2342
940,0.2334
941,0.2757
942,0.2790
943,0.2522
944,0.3064
945,0.2965
946,0.3156
947,0.3157
948,0.2736
949,0.3082
950,0.3299
951,0.3149
952,0.3141
953,0.3196
954,0.3290
955,0.3267
956,0.3104
957,0.3238
958,0.3177
959,0.2992
960,0.3001
961,0.2901
962,0.2735
963,0.2803
964,0.2716
965,0.2687
966,0.2585
967,0.2397
968,0.2425
969,0.2542
970,0.2472
971,0.2406
972,0.2358
973,0.2593
974,0.2814
975,0.2601
976,0.2559
977,0.2676
978,0.2641
979,0.2806
980,0.2731
981,0.2611
982,0.2820
983,0.2786
984,0.2763
985,0.2933
986,0.2782
987,0.2800
988,0.2689
989,0.2637
990,0.2533
991,0.2331
992,0.2044
993,0.1998
994,0.1952
995,0.1901
996,0.1922
997,0.1991
998,0.2066
999,0.2507
1000,0.2613
1001,0.2718
1002,0.3216
1003,0.3289
1004,0.3443
1005,0.3402
1006,0.3027
1007,0.3065
1008,0.3005
1009,0.2980
1010,0.2944
1011,0.2842
1012,0.2995
1013,0.3190
1014,0.3018
1015,0.2974
1016,0.3189
1017,0.3165
1018,0.3444
1019,0.3329
1020,0.3090
1021,0.3094
1022,0.3084
1023,0.2515
1024,0.2226
1025,0.2011
1026,0.1556
1027,0.2042
1028,0.2019
1029,0.2320
1030,0.2890
1031,0.2721
1032,0.3081
1033,0.3323
1034,0.2962
1035,0.2924
1036,0.2718
1037,0.2108
1038,0.2451
1039,0.0323
1040,0.0618
1041,0.5186
