401,0.3994
402,0.3987
403,0.3921
404,0.3902
405,0.3921
406,0.3890
407,0.3865
408,0.3932
409,0.3906
410,0.3902
411,0.3861
412,0.3842
413,0.3846
414,0.3818
415,0.3808
416,0.3762
417,0.3752
418,0.3677
419,0.3683
420,0.3645
421,0.3634
422,0.3612
423,0.3578
424,0.3526
425,0.3509
426,0.3456
427,0.3409
428,0.3377
429,0.3331
430,0.3292
431,0.3254
432,0.3247
433,0.3235
434,0.3229
435,0.3198
436,0.3206
437,0.3212
438,0.3159
439,0.3130
440,0.3112
441,0.3077
442,0.3063
443,0.3051
444,0.3013
445,0.2995
446,0.2958
447,0.2926
448,0.2923
449,0.2878
450,0.2864
451,0.2837
452,0.2823
453,0.2777
454,0.2742
455,0.2734
456,0.2701
457,0.2665
458,0.2651
459,0.2630
460,0.2609
461,0.2588
462,0.2595
463,0.2575
464,0.2548
465,0.2540
466,0.2511
467,0.2481
468,0.2480
469,0.2470
470,0.2451
471,0.2424
472,0.2397
473,0.2369
474,0.2360
475,0.2357
476,0.2339
477,0.2310
478,0.2288
479,0.2251
480,0.2242
481,0.2235
482,0.2209
483,0.2187
484,0.2165
485,0.2147
486,0.2129
487,0.2115
488,0.2088
489,0.2058
490,0.2044
491,0.2037
492,0.2025
493,0.2008
494,0.1991
495,0.1964
496,0.1950
497,0.1932
498,0.1914
499,0.1897
500,0.1868
501,0.1855
502,0.1832
503,0.1826
504,0.1809
505,0.1800
506,0.1788
507,0.1766
508,0.1755
509,0.1746
510,0.1727
511,0.1705
512,0.1690
513,0.1674
514,0.1666
515,0.1658
516,0.1646
517,0.1624
518,0.1611
519,0.1596
520,0.1582
521,0.1568
522,0.1549
523,0.1527
524,0.1519
525,0.1513
526,0.1492
527,0.1485
528,0.1474
529,0.1461
530,0.1439
531,0.1425
532,0.1415
533,0.1400
534,0.1393
535,0.1385
536,0.1374
537,0.1360
538,0.1357
539,0.1354
540,0.1341
541,0.1331
542,0.1312
543,0.1305
544,0.1294
545,0.1297
546,0.1290
547,0.1280
548,0.1267
549,0.1252
550,0.1239
551,0.1224
552,0.1212
553,0.1189
554,0.1180
555,0.1163
556,0.1161
557,0.1156
558,0.1142
559,0.1135
560,0.1124
561,0.1113
562,0.1104
563,0.1099
564,0.1082
565,0.1073
566,0.1074
567,0.1062
568,0.1060
569,0.1056
570,0.1049
571,0.1045
572,0.1037
573,0.1031
574,0.1019
575,0.1019
576,0.1007
577,0.0996
578,0.0982
579,0.0976
580,0.0972
581,0.0965
582,0.0957
583,0.0951
584,0.0940
585,0.0938
586,0.0931
587,0.0915
588,0.0909
589,0.0898
590,0.0883
591,0.0872
592,0.0866
593,0.0854
594,0.0849
595,0.0844
596,0.0841
597,0.0837
598,0.0835
599,0.0833
600,0.0830
601,0.0826
602,0.0820
603,0.0813
604,0.0803
605,0.0796
606,0.0791
607,0.0790
608,0.0784
609,0.0770
610,0.0764
611,0.0763
612,0.0762
613,0.0758
614,0.0758
615,0.0746
616,0.0745
617,0.0747
618,0.0742
619,0.0734
620,0.0727
621,0.0730
622,0.0726
623,0.0729
624,0.0723
625,0.0716
626,0.0721
627,0.0718
628,0.0717
629,0.0709
630,0.0702
631,0.0694
632,0.0693
633,0.0686
634,0.0681
635,0.0687
636,0.0681
637,0.0682
638,0.0682
639,0.0680
640,0.0680
641,0.0677
642,0.0672
643,0.0665
644,0.0663
645,0.0658
646,0.0656
647,0.0657
648,0.0653
649,0.0659
650,0.0660
651,0.0664
652,0.0657
653,0.0660
654,0.0658
655,0.0655
656,0.0659
657,0.0660
658,0.0660
659,0.0650
660,0.0653
661,0.0650
662,0.0652
663,0.0640
664,0.0631
665,0.0625
666,0.0617
667,0.0619
668,0.0616
669,0.0606
670,0.0609
671,0.0617
672,0.0622
673,0.0619
674,0.0628
675,0.0627
676,0.0635
677,0.0635
678,0.0635
679,0.0629
680,0.0624
681,0.0625
682,0.0618
683,0.0619
684,0.0616
685,0.0614
686,0.0613
687,0.0618
688,0.0619
689,0.0620
690,0.0620
691,0.0613
692,0.0616
693,0.0618
694,0.0619
695,0.0615
696,0.0610
697,0.0614
698,0.0612
699,0.0610
700,0.0608
701,0.0610
702,0.0615
703,0.0615
704,0.0617
705,0.0607
706,0.0616
707,0.0620
708,0.0619
709,0.0612
710,0.0615
711,0.0614
712,0.0609
713,0.0622
714,0.0616
715,0.0607
716,0.0616
717,0.0621
718,0.0629
719,0.0629
720,0.0628
721,0.0622
722,0.0625
723,0.0629
724,0.0624
725,0.0619
726,0.0611
727,0.0623
728,0.0625
729,0.0620
730,0.0620
731,0.0619
732,0.0609
733,0.0607
734,0.0612
735,0.0602
736,0.0601
737,0.0606
738,0.0605
739,0.0604
740,0.0618
741,0.0623
742,0.0620
743,0.0620
744,0.0626
745,0.0624
746,0.0645
747,0.0640
748,0.0640
749,0.0634
750,0.0636
751,0.0639
752,0.0643
753,0.0634
754,0.0632
755,0.0630
756,0.0630
757,0.0635
758,0.0637
759,0.0634
760,0.0640
761,0.0646
762,0.0650
763,0.0653
764,0.0654
765,0.0654
766,0.0659
767,0.0657
768,0.0656
769,0.0661
770,0.0661
771,0.0659
772,0.0661
773,0.0664
774,0.0662
775,0.0662
776,0.0672
777,0.0667
778,0.0666
779,0.0677
780,0.0686
781,0.0696
782,0.0705
783,0.0700
784,0.0699
785,0.0717
786,0.0705
787,0.0699
788,0.0695
789,0.0697
790,0.0697
791,0.0710
792,0.0698
793,0.0706
794,0.0716
795,0.0724
796,0.0739
797,0.0740
798,0.0739
799,0.0742
800,0.0759
801,0.0759
802,0.0777
803,0.0775
804,0.0757
805,0.0761
806,0.0768
807,0.0767
808,0.0767
809,0.0765
810,0.0754
811,0.0757
812,0.0762
813,0.0765
814,0.0757
815,0.0758
816,0.0756
817,0.0769
818,0.0787
819,0.0802
820,0.0812
821,0.0817
822,0.0813
823,0.0819
824,0.0824
825,0.0817
826,0.0810
827,0.0804
828,0.0797
829,0.0799
830,0.0809
831,0.0806
832,0.0795
833,0.0803
834,0.0830
835,0.0829
836,0.0828
837,0.0826
838,0.0844
839,0.0860
840,0.0854
841,0.0846
842,0.0830
843,0.0842
844,0.0849
845,0.0853
846,0.0835
847,0.0831
848,0.0837
849,0.0856
850,0.0857
851,0.0851
852,0.0847
853,0.0838
854,0.0841
855,0.0865
856,0.0873
857,0.0866
858,0.0878
859,0.0885
860,0.0894
861,0.0908
862,0.0905
863,0.0894
864,0.0896
865,0.0902
866,0.0904
867,0.0894
868,0.0904
869,0.0920
870,0.0913
871,0.0925
872,0.0926
873,0.0936
874,0.0930
875,0.0926
876,0.0921
877,0.0945
878,0.0950
879,0.0951
880,0.0954
881,0.0956
882,0.0959
883,0.0955
884,0.0952
885,0.0966
886,0.0952
887,0.0940
888,0.0945
889,0.0946
890,0.0953
891,0.0945
892,0.0953
893,0.0965
894,0.0972
895,0.0981
896,0.0971
897,0.0991
898,0.1019
899,0.1006
900,0.1001
901,0.1036
902,0.1021
903,0.1025
904,0.1029
905,0.1039
906,0.1034
907,0.1050
908,0.1032
909,0.1023
910,0.1015
911,0.1009
912,0.1013
913,0.1007
914,0.1012
915,0.1015
916,0.1035
917,0.1050
918,0.1060
919,0.1050
920,0.1054
921,0.1065
922,0.1067
923,0.1063
924,0.1058
925,0.1077
926,0.1096
927,0.1107
928,0.1116
929,0.1117
930,0.1145
931,0.1144
932,0.1171
933,0.1174
934,0.1170
935,0.1136
936,0.1137
937,0.1113
938,0.1110
939,0.1083
940,0.1101
941,0.1084
942,0.1096
943,0.1170
944,0.1119
945,0.1126
946,0.1177
947,0.1139
948,0.1140
949,0.1154
950,0.1106
951,0.1164
952,0.1165
953,0.1149
954,0.1137
955,0.1207
956,0.1179
957,0.1185
958,0.1132
959,0.1124
960,0.1140
961,0.1139
962,0.1124
963,0.1120
964,0.1167
965,0.1164
966,0.1201
967,0.1189
968,0.1241
969,0.1234
970,0.1240
971,0.1189
972,0.1239
973,0.1237
974,0.1236
975,0.1208
976,0.1174
977,0.1211
978,0.1245
979,0.1242
980,0.1237
981,0.1222
982,0.1230
983,0.1279
984,0.1227
985,0.1258
986,0.1239
987,0.1262
988,0.1254
989,0.1226
990,0.1190
991,0.1230
992,0.1196
993,0.1209
994,0.1191
995,0.1193
996,0.1263
997,0.1256
998,0.1199
999,0.1235
1000,0.1192
1001,0.1204
1002,0.1223
1003,0.1122
1004,0.1171
1005,0.1235
1006,0.1249
1007,0.1295
1008,0.1251
1009,0.1279
1010,0.1361
1011,0.1367
1012,0.1295
1013,0.1277
1014,0.1299
1015,0.1319
1016,0.1251
1017,0.1235
1018,0.1276
1019,0.1290
1020,0.1219
1021,0.1226
1022,0.1358
1023,0.1481
1024,0.1467
1025,0.1381
1026,0.1400
1027,0.1504
1028,0.1439
1029,0.1423
1030,0.1366
1031,0.1381
1032,0.1424
1033,0.1460
1034,0.1365
1035,0.1367
1036,0.1341
1037,0.1472
1038,0.1336
1039,0.1406
1040,0.2336
1041,0.0793
