401,0.3875
402,0.3849
403,0.3812
404,0.3796
405,0.3862
406,0.3862
407,0.3846
408,0.3814
409,0.3842
410,0.3796
411,0.3794
412,0.3825
413,0.3763
414,0.3717
415,0.3694
416,0.3715
417,0.3703
418,0.3669
419,0.3639
420,0.3609
421,0.3585
422,0.3605
423,0.3587
424,0.3602
425,0.3529
426,0.3560
427,0.3594
428,0.3597
429,0.3583
430,0.3546
431,0.3572
432,0.3564
433,0.3597
434,0.3580
435,0.3565
436,0.3520
437,0.3530
438,0.3490
439,0.3469
440,0.3463
441,0.3470
442,0.3465
443,0.3447
444,0.3441
445,0.3436
446,0.3403
447,0.3401
448,0.3407
449,0.3369
450,0.3385
451,0.3366
452,0.3380
453,0.3407
454,0.3433
455,0.3424
456,0.3420
457,0.3409
458,0.3396
459,0.3404
460,0.3419
461,0.3388
462,0.3373
463,0.3363
464,0.3350
465,0.3351
466,0.3363
467,0.3343
468,0.3335
469,0.3333
470,0.3348
471,0.3353
472,0.3342
473,0.3343
474,0.3302
475,0.3318
476,0.3308
477,0.3295
478,0.3280
479,0.3266
480,0.3264
481,0.3276
482,0.3285
483,0.3273
484,0.3266
485,0.3254
486,0.3253
487,0.3254
488,0.3260
489,0.3250
490,0.3266
491,0.3267
492,0.3258
493,0.3262
494,0.3252
495,0.3255
496,0.3249
497,0.3239
498,0.3233
499,0.3221
500,0.3231
501,0.3235
502,0.3239
503,0.3245
504,0.3241
505,0.3242
506,0.3238
507,0.3239
508,0.3229
509,0.3231
510,0.3222
511,0.3221
512,0.3213
513,0.3215
514,0.3216
515,0.3216
516,0.3207
517,0.3202
518,0.3199
519,0.3194
520,0.3197
521,0.3196
522,0.3194
523,0.3191
524,0.3200
525,0.3198
526,0.3195
527,0.3200
528,0.3195
529,0.3184
530,0.3184
531,0.3191
532,0.3183
533,0.3188
534,0.3187
535,0.3179
536,0.3177
537,0.3176
538,0.3176
539,0.3174
540,0.3168
541,0.3163
542,0.3163
543,0.3170
544,0.3168
545,0.3167
546,0.3154
547,0.3145
548,0.3144
549,0.3150
550,0.3144
551,0.3141
552,0.3141
553,0.3145
554,0.3146
555,0.3163
556,0.3166
557,0.3164
558,0.3167
559,0.3153
560,0.3153
561,0.3151
562,0.3143
563,0.3143
564,0.3142
565,0.3136
566,0.3137
567,0.3140
568,0.3139
569,0.3141
570,0.3139
571,0.3137
572,0.3131
573,0.3135
574,0.3134
575,0.3139
576,0.3136
577,0.3135
578,0.3141
579,0.3137
580,0.3139
581,0.3146
582,0.3141
583,0.3140
584,0.3141
585,0.3136
586,0.3138
587,0.3137
588,0.3129
589,0.3119
590,0.3118
591,0.3110
592,0.3108
593,0.3103
594,0.3101
595,0.3108
596,0.3106
597,0.3108
598,0.3109
599,0.3112
600,0.3115
601,0.3123
602,0.3122
603,0.3119
604,0.3126
605,0.3124
606,0.3118
607,0.3116
608,0.3109
609,0.3105
610,0.3101
611,0.3101
612,0.3089
613,0.3092
614,0.3095
615,0.3100
616,0.3095
617,0.3101
618,0.3096
619,0.3091
620,0.3097
621,0.3097
622,0.3097
623,0.3100
624,0.3106
625,0.3100
626,0.3101
627,0.3104
628,0.3104
629,0.3097
630,0.3094
631,0.3086
632,0.3082
633,0.3076
634,0.3076
635,0.3080
636,0.3079
637,0.3071
638,0.3071
639,0.3076
640,0.3076
641,0.3070
642,0.3073
643,0.3064
644,0.3056
645,0.3068
646,0.3072
647,0.3075
648,0.3077
649,0.3087
650,0.3083
651,0.3092
652,0.3093
653,0.3090
654,0.3074
655,0.3074
656,0.3063
657,0.3072
658,0.3071
659,0.3074
660,0.3075
661,0.3085
662,0.3091
663,0.3082
664,0.3095
665,0.3092
666,0.3089
667,0.3086
668,0.3093
669,0.3085
670,0.3082
671,0.3090
672,0.3082
673,0.3075
674,0.3083
675,0.3085
676,0.3079
677,0.3083
678,0.3090
679,0.3089
680,0.3089
681,0.3078
682,0.3076
683,0.3070
684,0.3064
685,0.3049
686,0.3046
687,0.3046
688,0.3056
689,0.3056
690,0.3055
691,0.3057
692,0.3059
693,0.3054
694,0.3051
695,0.3052
696,0.3051
697,0.3063
698,0.3064
699,0.3064
700,0.3067
701,0.3077
702,0.3072
703,0.3073
704,0.3076
705,0.3059
706,0.3052
707,0.3049
708,0.3056
709,0.3059
710,0.3062
711,0.3058
712,0.3048
713,0.3059
714,0.3068
715,0.3076
716,0.3067
717,0.3062
718,0.3061
719,0.3059
720,0.3058
721,0.3062
722,0.3048
723,0.3052
724,0.3047
725,0.3049
726,0.3061
727,0.3068
728,0.3067
729,0.3065
730,0.3063
731,0.3062
732,0.3062
733,0.3058
734,0.3056
735,0.3048
736,0.3040
737,0.3040
738,0.3045
739,0.3049
740,0.3039
741,0.3040
742,0.3049
743,0.3049
744,0.3056
745,0.3055
746,0.3056
747,0.3055
748,0.3056
749,0.3053
750,0.3056
751,0.3054
752,0.3055
753,0.3045
754,0.3033
755,0.3039
756,0.3042
757,0.3035
758,0.3026
759,0.3031
760,0.3033
761,0.3044
762,0.3057
763,0.3063
764,0.3063
765,0.3070
766,0.3077
767,0.3077
768,0.3079
769,0.3081
770,0.3067
771,0.3068
772,0.3063
773,0.3066
774,0.3060
775,0.3056
776,0.3055
777,0.3050
778,0.3053
779,0.3052
780,0.3053
781,0.3052
782,0.3056
783,0.3046
784,0.3051
785,0.3046
786,0.3043
787,0.3053
788,0.3048
789,0.3043
790,0.3054
791,0.3051
792,0.3053
793,0.3047
794,0.3035
795,0.3038
796,0.3036
797,0.3031
798,0.3043
799,0.3034
800,0.3051
801,0.3055
802,0.3054
803,0.3040
804,0.3038
805,0.3028
806,0.3011
807,0.3011
808,0.3019
809,0.3027
810,0.3024
811,0.3024
812,0.3031
813,0.3052
814,0.3068
815,0.3062
816,0.3041
817,0.3035
818,0.3030
819,0.3025
820,0.3005
821,0.2993
822,0.2985
823,0.2969
824,0.2976
825,0.2986
826,0.2997
827,0.3011
828,0.3019
829,0.3019
830,0.3031
831,0.3045
832,0.3033
833,0.3028
834,0.3019
835,0.3018
836,0.3012
837,0.3027
838,0.3034
839,0.3030
840,0.3032
841,0.3047
842,0.3065
843,0.3069
844,0.3068
845,0.3063
846,0.3060
847,0.3064
848,0.3053
849,0.3056
850,0.3051
851,0.3051
852,0.3046
853,0.3048
854,0.3044
855,0.3049
856,0.3051
857,0.3043
858,0.3025
859,0.3020
860,0.3021
861,0.3026
862,0.3030
863,0.3029
864,0.3027
865,0.3043
866,0.3044
867,0.3043
868,0.3031
869,0.3025
870,0.3023
871,0.3037
872,0.3038
873,0.3044
874,0.3031
875,0.3045
876,0.3058
877,0.3040
878,0.3029
879,0.3048
880,0.3030
881,0.3049
882,0.3047
883,0.3037
884,0.3051
885,0.3063
886,0.3040
887,0.3052
888,0.3037
889,0.3036
890,0.3041
891,0.3043
892,0.3031
893,0.3012
894,0.3014
895,0.3010
896,0.3021
897,0.3020
898,0.3022
899,0.3003
900,0.3002
901,0.2990
902,0.2969
903,0.2959
904,0.2958
905,0.2958
906,0.2986
907,0.2999
908,0.3015
909,0.3032
910,0.3047
911,0.3051
912,0.3071
913,0.3056
914,0.3034
915,0.3045
916,0.3058
917,0.3044
918,0.3040
919,0.3039
920,0.3054
921,0.3064
922,0.3050
923,0.3044
924,0.3044
925,0.3036
926,0.3038
927,0.3004
928,0.3040
929,0.3051
930,0.3021
931,0.3042
932,0.3068
933,0.3039
934,0.3033
935,0.2976
936,0.2975
937,0.2960
938,0.2922
939,0.2895
940,0.2909
941,0.2944
942,0.2934
943,0.2994
944,0.3076
945,0.3084
946,0.2998
947,0.2954
948,0.2921
949,0.2937
950,0.2909
951,0.2834
952,0.2854
953,0.2964
954,0.2970
955,0.2985
956,0.3029
957,0.3006
958,0.3094
959,0.3045
960,0.3055
961,0.3067
962,0.3058
963,0.3029
964,0.3026
965,0.3035
966,0.3030
967,0.3033
968,0.3003
969,0.2990
970,0.2979
971,0.2991
972,0.2983
973,0.3032
974,0.2959
975,0.2946
976,0.2973
977,0.2995
978,0.2975
979,0.2978
980,0.2977
981,0.3080
982,0.3077
983,0.3067
984,0.3085
985,0.3106
986,0.3084
987,0.3050
988,0.2953
989,0.2936
990,0.2900
991,0.2868
992,0.2913
993,0.2933
994,0.2975
995,0.3035
996,0.3087
997,0.3131
998,0.3174
999,0.3079
1000,0.3039
1001,0.3050
1002,0.3064
1003,0.3062
1004,0.3100
1005,0.3055
1006,0.3057
1007,0.3175
1008,0.3043
1009,0.2958
1010,0.2860
1011,0.2855
1012,0.2827
1013,0.2862
1014,0.2759
1015,0.2799
1016,0.2842
1017,0.2881
1018,0.2727
1019,0.2729
1020,0.2646
1021,0.2658
1022,0.2701
1023,0.2708
1024,0.2709
1025,0.2727
1026,0.2770
1027,0.2881
1028,0.2793
1029,0.2760
1030,0.2784
1031,0.2787
1032,0.2863
1033,0.2778
1034,0.2897
1035,0.2948
1036,0.3120
1037,0.2862
1038,0.3035
1039,0.3921
1040,0.2510
1041,0.6157
