401,0.4304
402,0.4246
403,0.4191
404,0.4165
405,0.4187
406,0.4139
407,0.4094
408,0.4058
409,0.4064
410,0.4009
411,0.3934
412,0.3949
413,0.3896
414,0.3859
415,0.3851
416,0.3849
417,0.3808
418,0.3794
419,0.3785
420,0.3766
421,0.3754
422,0.3708
423,0.3697
424,0.3598
425,0.3512
426,0.3482
427,0.3447
428,0.3449
429,0.3423
430,0.3373
431,0.3357
432,0.3369
433,0.3367
434,0.3358
435,0.3352
436,0.3313
437,0.3271
438,0.3210
439,0.3169
440,0.3119
441,0.3092
442,0.3093
443,0.3016
444,0.3000
445,0.2968
446,0.2917
447,0.2900
448,0.2885
449,0.2878
450,0.2873
451,0.2830
452,0.2836
453,0.2810
454,0.2819
455,0.2805
456,0.2775
457,0.2745
458,0.2712
459,0.2703
460,0.2708
461,0.2688
462,0.2664
463,0.2619
464,0.2604
465,0.2577
466,0.2551
467,0.2536
468,0.2486
469,0.2464
470,0.2452
471,0.2440
472,0.2421
473,0.2405
474,0.2367
475,0.2344
476,0.2317
477,0.2298
478,0.2258
479,0.2233
480,0.2212
481,0.2188
482,0.2178
483,0.2164
484,0.2149
485,0.2127
486,0.2120
487,0.2094
488,0.2079
489,0.2059
490,0.2035
491,0.2022
492,0.2001
493,0.1972
494,0.1943
495,0.1925
496,0.1893
497,0.1875
498,0.1863
499,0.1847
500,0.1824
501,0.1809
502,0.1798
503,0.1781
504,0.1764
505,0.1754
506,0.1731
507,0.1705
508,0.1683
509,0.1673
510,0.1657
511,0.1637
512,0.1629
513,0.1605
514,0.1592
515,0.1578
516,0.1561
517,0.1531
518,0.1513
519,0.1501
520,0.1481
521,0.1465
522,0.1450
523,0.1426
524,0.1416
525,0.1403
526,0.1387
527,0.1374
528,0.1355
529,0.1338
530,0.1320
531,0.1309
532,0.1293
533,0.1274
534,0.1265
535,0.1251
536,0.1239
537,0.1231
538,0.1227
539,0.1211
540,0.1203
541,0.1188
542,0.1170
543,0.1157
544,0.1145
545,0.1132
546,0.1118
547,0.1105
548,0.1085
549,0.1076
550,0.1068
551,0.1053
552,0.1034
553,0.1023
554,0.1010
555,0.0999
556,0.0992
557,0.0985
558,0.0970
559,0.0956
560,0.0944
561,0.0933
562,0.0922
563,0.0911
564,0.0895
565,0.0883
566,0.0875
567,0.0874
568,0.0872
569,0.0864
570,0.0851
571,0.0842
572,0.0837
573,0.0833
574,0.0827
575,0.0809
576,0.0803
577,0.0796
578,0.0795
579,0.0790
580,0.0780
581,0.0770
582,0.0766
583,0.0757
584,0.0748
585,0.0740
586,0.0734
587,0.0722
588,0.0722
589,0.0714
590,0.0698
591,0.0694
592,0.0688
593,0.0684
594,0.0679
595,0.0674
596,0.0659
597,0.0652
598,0.0649
599,0.0643
600,0.0637
601,0.0634
602,0.0628
603,0.0616
604,0.0618
605,0.0616
606,0.0609
607,0.0608
608,0.0607
609,0.0599
610,0.0594
611,0.0594
612,0.0582
613,0.0574
614,0.0571
615,0.0565
616,0.0559
617,0.0560
618,0.0555
619,0.0554
620,0.0552
621,0.0555
622,0.0553
623,0.0548
624,0.0545
625,0.0532
626,0.0530
627,0.0526
628,0.0525
629,0.0516
630,0.0512
631,0.0510
632,0.0509
633,0.0507
634,0.0503
635,0.0495
636,0.0485
637,0.0485
638,0.0484
639,0.0482
640,0.0475
641,0.0469
642,0.0469
643,0.0469
644,0.0470
645,0.0467
646,0.0468
647,0.0467
648,0.0465
649,0.0466
650,0.0465
651,0.0466
652,0.0465
653,0.0465
654,0.0454
655,0.0451
656,0.0445
657,0.0443
658,0.0442
659,0.0442
660,0.0445
661,0.0450
662,0.0451
663,0.0449
664,0.0452
665,0.0451
666,0.0455
667,0.0451
668,0.0446
669,0.0445
670,0.0444
671,0.0441
672,0.0441
673,0.0443
674,0.0438
675,0.0438
676,0.0440
677,0.0439
678,0.0438
679,0.0443
680,0.0445
681,0.0441
682,0.0448
683,0.0446
684,0.0444
685,0.0444
686,0.0449
687,0.0447
688,0.0442
689,0.0441
690,0.0439
691,0.0443
692,0.0444
693,0.0440
694,0.0436
695,0.0435
696,0.0441
697,0.0440
698,0.0443
699,0.0437
700,0.0438
701,0.0454
702,0.0460
703,0.0468
704,0.0468
705,0.0463
706,0.0463
707,0.0467
708,0.0463
709,0.0452
710,0.0455
711,0.0454
712,0.0457
713,0.0458
714,0.0460
715,0.0458
716,0.0463
717,0.0471
718,0.0468
719,0.0466
720,0.0470
721,0.0475
722,0.0479
723,0.0485
724,0.0486
725,0.0489
726,0.0496
727,0.0498
728,0.0496
729,0.0495
730,0.0497
731,0.0501
732,0.0507
733,0.0501
734,0.0501
735,0.0499
736,0.0501
737,0.0511
738,0.0507
739,0.0508
740,0.0505
741,0.0509
742,0.0509
743,0.0513
744,0.0519
745,0.0516
746,0.0518
747,0.0518
748,0.0524
749,0.0529
750,0.0538
751,0.0542
752,0.0540
753,0.0539
754,0.0552
755,0.0551
756,0.0549
757,0.0551
758,0.0549
759,0.0554
760,0.0553
761,0.0563
762,0.0565
763,0.0571
764,0.0575
765,0.0581
766,0.0575
767,0.0568
768,0.0573
769,0.0573
770,0.0569
771,0.0568
772,0.0559
773,0.0564
774,0.0567
775,0.0576
776,0.0582
777,0.0588
778,0.0593
779,0.0592
780,0.0598
781,0.0610
782,0.0617
783,0.0618
784,0.0619
785,0.0621
786,0.0615
787,0.0615
788,0.0619
789,0.0606
790,0.0602
791,0.0603
792,0.0600
793,0.0612
794,0.0624
795,0.0627
796,0.0639
797,0.0651
798,0.0644
799,0.0650
800,0.0659
801,0.0654
802,0.0662
803,0.0664
804,0.0668
805,0.0678
806,0.0681
807,0.0676
808,0.0682
809,0.0692
810,0.0684
811,0.0679
812,0.0677
813,0.0673
814,0.0680
815,0.0673
816,0.0669
817,0.0683
818,0.0695
819,0.0702
820,0.0702
821,0.0716
822,0.0718
823,0.0724
824,0.0729
825,0.0722
826,0.0729
827,0.0733
828,0.0734
829,0.0730
830,0.0739
831,0.0743
832,0.0746
833,0.0746
834,0.0756
835,0.0762
836,0.0766
837,0.0759
838,0.0758
839,0.0762
840,0.0770
841,0.0779
842,0.0775
843,0.0785
844,0.0794
845,0.0802
846,0.0809
847,0.0822
848,0.0805
849,0.0812
850,0.0827
851,0.0835
852,0.0839
853,0.0846
854,0.0857
855,0.0853
856,0.0849
857,0.0838
858,0.0836
859,0.0854
860,0.0851
861,0.0848
862,0.0862
863,0.0874
864,0.0895
865,0.0906
866,0.0887
867,0.0888
868,0.0906
869,0.0909
870,0.0912
871,0.0904
872,0.0908
873,0.0915
874,0.0920
875,0.0910
876,0.0906
877,0.0900
878,0.0901
879,0.0898
880,0.0901
881,0.0894
882,0.0887
883,0.0889
884,0.0890
885,0.0890
886,0.0899
887,0.0914
888,0.0920
889,0.0949
890,0.0959
891,0.0971
892,0.0991
893,0.1015
894,0.1026
895,0.1030
896,0.1012
897,0.1020
898,0.1014
899,0.0988
900,0.0982
901,0.0957
902,0.0958
903,0.0954
904,0.0952
905,0.0962
906,0.0970
907,0.0992
908,0.1004
909,0.1023
910,0.1036
911,0.1039
912,0.1049
913,0.1055
914,0.1054
915,0.1049
916,0.1049
917,0.1056
918,0.1059
919,0.1032
920,0.1045
921,0.1056
922,0.1040
923,0.1044
924,0.1051
925,0.1040
926,0.1055
927,0.1034
928,0.1050
929,0.1044
930,0.1057
931,0.1043
932,0.1065
933,0.1081
934,0.1072
935,0.1034
936,0.1072
937,0.1043
938,0.1067
939,0.1036
940,0.1027
941,0.1034
942,0.1101
943,0.1148
944,0.1224
945,0.1167
946,0.1173
947,0.1114
948,0.1132
949,0.1131
950,0.1075
951,0.1051
952,0.1107
953,0.1178
954,0.1169
955,0.1201
956,0.1189
957,0.1128
958,0.1153
959,0.1167
960,0.1180
961,0.1220
962,0.1217
963,0.1198
964,0.1252
965,0.1223
966,0.1185
967,0.1130
968,0.1104
969,0.1125
970,0.1135
971,0.1129
972,0.1171
973,0.1181
974,0.1154
975,0.1158
976,0.1170
977,0.1183
978,0.1198
979,0.1228
980,0.1263
981,0.1305
982,0.1324
983,0.1310
984,0.1304
985,0.1341
986,0.1304
987,0.1276
988,0.1341
989,0.1293
990,0.1306
991,0.1313
992,0.1310
993,0.1338
994,0.1358
995,0.1341
996,0.1385
997,0.1333
998,0.1338
999,0.1329
1000,0.1266
1001,0.1243
1002,0.1243
1003,0.1246
1004,0.1365
1005,0.1325
1006,0.1358
1007,0.1483
1008,0.1463
1009,0.1393
1010,0.1352
1011,0.1390
1012,0.1317
1013,0.1314
1014,0.1186
1015,0.1202
1016,0.1252
1017,0.1264
1018,0.1091
1019,0.1142
1020,0.1180
1021,0.1268
1022,0.1305
1023,0.1236
1024,0.1270
1025,0.1285
1026,0.1361
1027,0.1278
1028,0.1297
1029,0.1311
1030,0.1371
1031,0.1429
1032,0.1446
1033,0.1309
1034,0.1271
1035,0.1066
1036,0.1004
1037,0.1078
1038,0.1025
1039,0.0105
1040,0.2534
1041,0.1215
