401,0.3837
402,0.3825
403,0.3835
404,0.3808
405,0.3826
406,0.3786
407,0.3782
408,0.3844
409,0.3828
410,0.3882
411,0.3837
412,0.3784
413,0.3743
414,0.3727
415,0.3691
416,0.3630
417,0.3571
418,0.3471
419,0.3466
420,0.3473
421,0.3484
422,0.3473
423,0.3433
424,0.3414
425,0.3378
426,0.3323
427,0.3294
428,0.3272
429,0.3205
430,0.3147
431,0.3103
432,0.3104
433,0.3082
434,0.3062
435,0.3007
436,0.2978
437,0.2966
438,0.2952
439,0.2937
440,0.2897
441,0.2855
442,0.2852
443,0.2855
444,0.2873
445,0.2856
446,0.2811
447,0.2792
448,0.2809
449,0.2755
450,0.2719
451,0.2705
452,0.2697
453,0.2650
454,0.2618
455,0.2592
456,0.2540
457,0.2529
458,0.2514
459,0.2496
460,0.2453
461,0.2407
462,0.2407
463,0.2386
464,0.2365
465,0.2338
466,0.2308
467,0.2297
468,0.2296
469,0.2290
470,0.2264
471,0.2241
472,0.2215
473,0.2198
474,0.2202
475,0.2177
476,0.2159
477,0.2136
478,0.2112
479,0.2082
480,0.2067
481,0.2053
482,0.2020
483,0.2003
484,0.1989
485,0.1970
486,0.1959
487,0.1942
488,0.1932
489,0.1908
490,0.1888
491,0.1874
492,0.1866
493,0.1842
494,0.1816
495,0.1804
496,0.1784
497,0.1761
498,0.1741
499,0.1725
500,0.1702
501,0.1687
502,0.1676
503,0.1658
504,0.1650
505,0.1647
506,0.1639
507,0.1622
508,0.1606
509,0.1591
510,0.1564
511,0.1539
512,0.1523
513,0.1493
514,0.1472
515,0.1461
516,0.1451
517,0.1431
518,0.1418
519,0.1412
520,0.1400
521,0.1387
522,0.1375
523,0.1361
524,0.1356
525,0.1349
526,0.1335
527,0.1321
528,0.1305
529,0.1286
530,0.1273
531,0.1268
532,0.1247
533,0.1232
534,0.1212
535,0.1199
536,0.1176
537,0.1166
538,0.1163
539,0.1140
540,0.1129
541,0.1116
542,0.1108
543,0.1103
544,0.1103
545,0.1098
546,0.1084
547,0.1075
548,0.1061
549,0.1048
550,0.1035
551,0.1023
552,0.1005
553,0.0992
554,0.0984
555,0.0969
556,0.0964
557,0.0961
558,0.0947
559,0.0943
560,0.0937
561,0.0929
562,0.0920
563,0.0916
564,0.0897
565,0.0894
566,0.0887
567,0.0872
568,0.0862
569,0.0849
570,0.0840
571,0.0838
572,0.0836
573,0.0814
574,0.0807
575,0.0802
576,0.0798
577,0.0791
578,0.0776
579,0.0763
580,0.0752
581,0.0754
582,0.0749
583,0.0739
584,0.0730
585,0.0728
586,0.0722
587,0.0712
588,0.0711
589,0.0699
590,0.0684
591,0.0675
592,0.0666
593,0.0660
594,0.0648
595,0.0645
596,0.0638
597,0.0637
598,0.0634
599,0.0634
600,0.0626
601,0.0620
602,0.0619
603,0.0607
604,0.0597
605,0.0584
606,0.0574
607,0.0571
608,0.0568
609,0.0556
610,0.0553
611,0.0555
612,0.0555
613,0.0559
614,0.0556
615,0.0544
616,0.0541
617,0.0533
618,0.0532
619,0.0520
620,0.0513
621,0.0515
622,0.0513
623,0.0514
624,0.0509
625,0.0511
626,0.0507
627,0.0506
628,0.0506
629,0.0497
630,0.0494
631,0.0490
632,0.0489
633,0.0486
634,0.0486
635,0.0486
636,0.0484
637,0.0481
638,0.0480
639,0.0478
640,0.0479
641,0.0478
642,0.0477
643,0.0475
644,0.0471
645,0.0475
646,0.0470
647,0.0470
648,0.0464
649,0.0466
650,0.0464
651,0.0465
652,0.0461
653,0.0455
654,0.0459
655,0.0458
656,0.0461
657,0.0453
658,0.0450
659,0.0438
660,0.0437
661,0.0438
662,0.0432
663,0.0433
664,0.0429
665,0.0422
666,0.0424
667,0.0432
668,0.0429
669,0.0423
670,0.0423
671,0.0422
672,0.0420
673,0.0426
674,0.0430
675,0.0431
676,0.0437
677,0.0435
678,0.0434
679,0.0437
680,0.0434
681,0.0441
682,0.0430
683,0.0425
684,0.0423
685,0.0419
686,0.0417
687,0.0418
688,0.0417
689,0.0411
690,0.0412
691,0.0411
692,0.0413
693,0.0412
694,0.0411
695,0.0407
696,0.0402
697,0.0409
698,0.0405
699,0.0406
700,0.0403
701,0.0412
702,0.0422
703,0.0424
704,0.0431
705,0.0430
706,0.0444
707,0.0444
708,0.0442
709,0.0442
710,0.0440
711,0.0434
712,0.0436
713,0.0433
714,0.0430
715,0.0429
716,0.0439
717,0.0444
718,0.0443
719,0.0447
720,0.0445
721,0.0445
722,0.0444
723,0.0444
724,0.0429
725,0.0428
726,0.0432
727,0.0433
728,0.0433
729,0.0436
730,0.0437
731,0.0439
732,0.0439
733,0.0432
734,0.0432
735,0.0425
736,0.0425
737,0.0431
738,0.0434
739,0.0438
740,0.0443
741,0.0452
742,0.0454
743,0.0458
744,0.0467
745,0.0465
746,0.0467
747,0.0470
748,0.0474
749,0.0470
750,0.0478
751,0.0475
752,0.0477
753,0.0481
754,0.0482
755,0.0484
756,0.0476
757,0.0484
758,0.0485
759,0.0491
760,0.0497
761,0.0492
762,0.0490
763,0.0485
764,0.0493
765,0.0489
766,0.0488
767,0.0480
768,0.0480
769,0.0491
770,0.0496
771,0.0501
772,0.0501
773,0.0515
774,0.0512
775,0.0509
776,0.0514
777,0.0512
778,0.0517
779,0.0523
780,0.0524
781,0.0532
782,0.0542
783,0.0538
784,0.0540
785,0.0552
786,0.0552
787,0.0542
788,0.0541
789,0.0542
790,0.0548
791,0.0553
792,0.0554
793,0.0556
794,0.0556
795,0.0573
796,0.0580
797,0.0581
798,0.0587
799,0.0584
800,0.0602
801,0.0607
802,0.0617
803,0.0621
804,0.0610
805,0.0615
806,0.0625
807,0.0625
808,0.0611
809,0.0611
810,0.0610
811,0.0610
812,0.0614
813,0.0619
814,0.0603
815,0.0613
816,0.0622
817,0.0627
818,0.0636
819,0.0648
820,0.0664
821,0.0666
822,0.0662
823,0.0661
824,0.0671
825,0.0665
826,0.0660
827,0.0657
828,0.0649
829,0.0646
830,0.0654
831,0.0654
832,0.0654
833,0.0656
834,0.0662
835,0.0663
836,0.0672
837,0.0669
838,0.0678
839,0.0684
840,0.0685
841,0.0690
842,0.0681
843,0.0701
844,0.0698
845,0.0713
846,0.0701
847,0.0710
848,0.0716
849,0.0723
850,0.0721
851,0.0717
852,0.0727
853,0.0722
854,0.0715
855,0.0730
856,0.0734
857,0.0716
858,0.0725
859,0.0724
860,0.0734
861,0.0747
862,0.0736
863,0.0737
864,0.0757
865,0.0775
866,0.0776
867,0.0772
868,0.0773
869,0.0790
870,0.0803
871,0.0803
872,0.0788
873,0.0792
874,0.0789
875,0.0798
876,0.0798
877,0.0806
878,0.0810
879,0.0818
880,0.0823
881,0.0827
882,0.0821
883,0.0815
884,0.0817
885,0.0830
886,0.0830
887,0.0840
888,0.0847
889,0.0845
890,0.0857
891,0.0855
892,0.0860
893,0.0866
894,0.0852
895,0.0854
896,0.0858
897,0.0862
898,0.0875
899,0.0862
900,0.0854
901,0.0877
902,0.0885
903,0.0887
904,0.0904
905,0.0905
906,0.0928
907,0.0931
908,0.0927
909,0.0922
910,0.0923
911,0.0925
912,0.0922
913,0.0913
914,0.0911
915,0.0918
916,0.0918
917,0.0928
918,0.0929
919,0.0928
920,0.0944
921,0.0956
922,0.0955
923,0.0962
924,0.0956
925,0.0963
926,0.0957
927,0.0940
928,0.0957
929,0.0967
930,0.0992
931,0.0985
932,0.0986
933,0.0991
934,0.1048
935,0.1015
936,0.1017
937,0.0977
938,0.1016
939,0.1021
940,0.1014
941,0.0892
942,0.0868
943,0.0868
944,0.0813
945,0.0680
946,0.0761
947,0.0808
948,0.0817
949,0.0826
950,0.0864
951,0.0958
952,0.1025
953,0.1014
954,0.1020
955,0.1055
956,0.1073
957,0.1060
958,0.1032
959,0.1024
960,0.1044
961,0.1031
962,0.1035
963,0.1024
964,0.1090
965,0.1070
966,0.1059
967,0.1015
968,0.1022
969,0.1034
970,0.1068
971,0.1011
972,0.1037
973,0.1054
974,0.1104
975,0.1126
976,0.1120
977,0.1088
978,0.1121
979,0.1120
980,0.1153
981,0.1084
982,0.1109
983,0.1126
984,0.1096
985,0.1099
986,0.1099
987,0.1119
988,0.1138
989,0.1100
990,0.1089
991,0.1147
992,0.1110
993,0.1179
994,0.1123
995,0.1120
996,0.1140
997,0.1107
998,0.1105
999,0.1133
1000,0.1048
1001,0.1034
1002,0.1087
1003,0.1070
1004,0.1042
1005,0.1016
1006,0.1105
1007,0.1096
1008,0.1137
1009,0.1098
1010,0.1063
1011,0.1165
1012,0.1110
1013,0.1089
1014,0.1162
1015,0.1049
1016,0.1119
1017,0.1215
1018,0.1176
1019,0.1251
1020,0.1198
1021,0.1211
1022,0.1371
1023,0.1371
1024,0.1358
1025,0.1359
1026,0.1337
1027,0.1380
1028,0.1265
1029,0.1275
1030,0.1208
1031,0.1270
1032,0.1191
1033,0.1324
1034,0.1299
1035,0.1319
1036,0.1382
1037,0.1397
1038,0.1312
1039,0.2082
1040,0.0583
1041,0.1169
