401,0.4475
402,0.4373
403,0.4425
404,0.4376
405,0.4275
406,0.4226
407,0.4202
408,0.4148
409,0.4112
410,0.4076
411,0.4069
412,0.3999
413,0.3999
414,0.4013
415,0.3999
416,0.3987
417,0.3950
418,0.3973
419,0.3925
420,0.3903
421,0.3910
422,0.3916
423,0.3836
424,0.3788
425,0.3757
426,0.3695
427,0.3640
428,0.3669
429,0.3638
430,0.3599
431,0.3580
432,0.3563
433,0.3525
434,0.3476
435,0.3499
436,0.3400
437,0.3352
438,0.3286
439,0.3231
440,0.3210
441,0.3178
442,0.3159
443,0.3115
444,0.3133
445,0.3124
446,0.3127
447,0.3094
448,0.3077
449,0.3039
450,0.3031
451,0.3008
452,0.2964
453,0.2935
454,0.2891
455,0.2849
456,0.2820
457,0.2788
458,0.2747
459,0.2751
460,0.2735
461,0.2688
462,0.2666
463,0.2644
464,0.2645
465,0.2619
466,0.2609
467,0.2587
468,0.2536
469,0.2533
470,0.2517
471,0.2503
472,0.2466
473,0.2453
474,0.2428
475,0.2368
476,0.2356
477,0.2333
478,0.2306
479,0.2279
480,0.2261
481,0.2241
482,0.2196
483,0.2179
484,0.2163
485,0.2144
486,0.2122
487,0.2097
488,0.2079
489,0.2072
490,0.2056
491,0.2054
492,0.2031
493,0.2007
494,0.1987
495,0.1974
496,0.1962
497,0.1936
498,0.1925
499,0.1900
500,0.1872
501,0.1854
502,0.1831
503,0.1810
504,0.1793
505,0.1773
506,0.1763
507,0.1740
508,0.1723
509,0.1704
510,0.1685
511,0.1666
512,0.1659
513,0.1630
514,0.1615
515,0.1605
516,0.1580
517,0.1568
518,0.1557
519,0.1549
520,0.1520
521,0.1505
522,0.1490
523,0.1463
524,0.1452
525,0.1438
526,0.1416
527,0.1403
528,0.1385
529,0.1375
530,0.1355
531,0.1344
532,0.1334
533,0.1314
534,0.1295
535,0.1272
536,0.1252
537,0.1241
538,0.1224
539,0.1207
540,0.1193
541,0.1182
542,0.1165
543,0.1159
544,0.1149
545,0.1122
546,0.1108
547,0.1100
548,0.1089
549,0.1083
550,0.1077
551,0.1067
552,0.1058
553,0.1052
554,0.1040
555,0.1022
556,0.1007
557,0.0995
558,0.0975
559,0.0969
560,0.0956
561,0.0943
562,0.0943
563,0.0938
564,0.0926
565,0.0922
566,0.0916
567,0.0902
568,0.0895
569,0.0882
570,0.0862
571,0.0856
572,0.0847
573,0.0835
574,0.0827
575,0.0822
576,0.0811
577,0.0806
578,0.0796
579,0.0790
580,0.0784
581,0.0775
582,0.0764
583,0.0755
584,0.0748
585,0.0742
586,0.0738
587,0.0726
588,0.0722
589,0.0713
590,0.0702
591,0.0694
592,0.0688
593,0.0681
594,0.0670
595,0.0665
596,0.0657
597,0.0652
598,0.0648
599,0.0646
600,0.0639
601,0.0631
602,0.0632
603,0.0626
604,0.0617
605,0.0614
606,0.0608
607,0.0597
608,0.0598
609,0.0593
610,0.0588
611,0.0580
612,0.0575
613,0.0569
614,0.0563
615,0.0556
616,0.0545
617,0.0540
618,0.0533
619,0.0534
620,0.0534
621,0.0531
622,0.0528
623,0.0530
624,0.0531
625,0.0525
626,0.0524
627,0.0521
628,0.0516
629,0.0517
630,0.0517
631,0.0510
632,0.0506
633,0.0500
634,0.0500
635,0.0493
636,0.0487
637,0.0488
638,0.0482
639,0.0482
640,0.0482
641,0.0485
642,0.0482
643,0.0482
644,0.0478
645,0.0471
646,0.0467
647,0.0461
648,0.0457
649,0.0449
650,0.0442
651,0.0442
652,0.0440
653,0.0438
654,0.0443
655,0.0443
656,0.0448
657,0.0448
658,0.0451
659,0.0449
660,0.0452
661,0.0447
662,0.0441
663,0.0436
664,0.0429
665,0.0431
666,0.0426
667,0.0423
668,0.0416
669,0.0417
670,0.0423
671,0.0431
672,0.0434
673,0.0431
674,0.0434
675,0.0437
676,0.0442
677,0.0444
678,0.0441
679,0.0437
680,0.0431
681,0.0427
682,0.0423
683,0.0431
684,0.0430
685,0.0432
686,0.0431
687,0.0430
688,0.0447
689,0.0443
690,0.0444
691,0.0436
692,0.0435
693,0.0437
694,0.0433
695,0.0435
696,0.0434
697,0.0442
698,0.0444
699,0.0447
700,0.0450
701,0.0447
702,0.0454
703,0.0450
704,0.0445
705,0.0442
706,0.0445
707,0.0443
708,0.0439
709,0.0444
710,0.0452
711,0.0462
712,0.0461
713,0.0467
714,0.0467
715,0.0471
716,0.0473
717,0.0473
718,0.0465
719,0.0464
720,0.0470
721,0.0465
722,0.0464
723,0.0468
724,0.0475
725,0.0475
726,0.0483
727,0.0479
728,0.0480
729,0.0489
730,0.0485
731,0.0493
732,0.0494
733,0.0495
734,0.0492
735,0.0497
736,0.0496
737,0.0502
738,0.0502
739,0.0498
740,0.0498
741,0.0505
742,0.0508
743,0.0509
744,0.0515
745,0.0520
746,0.0530
747,0.0535
748,0.0540
749,0.0546
750,0.0549
751,0.0552
752,0.0549
753,0.0548
754,0.0552
755,0.0548
756,0.0556
757,0.0552
758,0.0548
759,0.0554
760,0.0561
761,0.0558
762,0.0555
763,0.0559
764,0.0558
765,0.0563
766,0.0570
767,0.0580
768,0.0577
769,0.0579
770,0.0583
771,0.0584
772,0.0584
773,0.0589
774,0.0576
775,0.0576
776,0.0583
777,0.0582
778,0.0586
779,0.0592
780,0.0597
781,0.0609
782,0.0612
783,0.0619
784,0.0620
785,0.0628
786,0.0623
787,0.0630
788,0.0641
789,0.0640
790,0.0635
791,0.0636
792,0.0644
793,0.0651
794,0.0661
795,0.0657
796,0.0654
797,0.0649
798,0.0661
799,0.0669
800,0.0666
801,0.0671
802,0.0674
803,0.0678
804,0.0695
805,0.0699
806,0.0690
807,0.0690
808,0.0702
809,0.0699
810,0.0694
811,0.0687
812,0.0687
813,0.0693
814,0.0703
815,0.0695
816,0.0692
817,0.0706
818,0.0713
819,0.0703
820,0.0703
821,0.0708
822,0.0711
823,0.0715
824,0.0719
825,0.0719
826,0.0728
827,0.0740
828,0.0754
829,0.0755
830,0.0771
831,0.0769
832,0.0773
833,0.0773
834,0.0777
835,0.0766
836,0.0767
837,0.0769
838,0.0772
839,0.0784
840,0.0795
841,0.0800
842,0.0815
843,0.0814
844,0.0822
845,0.0816
846,0.0816
847,0.0815
848,0.0826
849,0.0818
850,0.0833
851,0.0851
852,0.0853
853,0.0861
854,0.0871
855,0.0866
856,0.0874
857,0.0876
858,0.0861
859,0.0855
860,0.0849
861,0.0850
862,0.0844
863,0.0847
864,0.0855
865,0.0855
866,0.0874
867,0.0900
868,0.0913
869,0.0904
870,0.0911
871,0.0924
872,0.0928
873,0.0930
874,0.0911
875,0.0911
876,0.0912
877,0.0912
878,0.0908
879,0.0914
880,0.0915
881,0.0922
882,0.0928
883,0.0955
884,0.0963
885,0.0977
886,0.0966
887,0.0961
888,0.0961
889,0.0971
890,0.0976
891,0.0968
892,0.0970
893,0.0971
894,0.0995
895,0.1007
896,0.0996
897,0.0989
898,0.0998
899,0.1003
900,0.1019
901,0.1003
902,0.0992
903,0.0987
904,0.0999
905,0.1000
906,0.1003
907,0.0987
908,0.0985
909,0.1007
910,0.1022
911,0.1031
912,0.1033
913,0.1036
914,0.1057
915,0.1077
916,0.1079
917,0.1083
918,0.1064
919,0.1055
920,0.1067
921,0.1054
922,0.1051
923,0.1037
924,0.1035
925,0.1040
926,0.1058
927,0.1075
928,0.1071
929,0.1104
930,0.1113
931,0.1129
932,0.1141
933,0.1170
934,0.1132
935,0.1173
936,0.1139
937,0.1131
938,0.1125
939,0.1167
940,0.1135
941,0.1132
942,0.1090
943,0.1185
944,0.1177
945,0.1166
946,0.1125
947,0.1145
948,0.1230
949,0.1225
950,0.1212
951,0.1260
952,0.1277
953,0.1269
954,0.1262
955,0.1234
956,0.1250
957,0.1264
958,0.1240
959,0.1243
960,0.1230
961,0.1240
962,0.1255
963,0.1273
964,0.1210
965,0.1226
966,0.1227
967,0.1274
968,0.1264
969,0.1261
970,0.1256
971,0.1342
972,0.1337
973,0.1354
974,0.1348
975,0.1376
976,0.1396
977,0.1389
978,0.1372
979,0.1356
980,0.1371
981,0.1386
982,0.1345
983,0.1313
984,0.1358
985,0.1324
986,0.1305
987,0.1302
988,0.1279
989,0.1322
990,0.1335
991,0.1294
992,0.1305
993,0.1336
994,0.1313
995,0.1316
996,0.1347
997,0.1425
998,0.1416
999,0.1376
1000,0.1380
1001,0.1397
1002,0.1438
1003,0.1434
1004,0.1363
1005,0.1373
1006,0.1506
1007,0.1444
1008,0.1450
1009,0.1408
1010,0.1380
1011,0.1423
1012,0.1388
1013,0.1389
1014,0.1500
1015,0.1510
1016,0.1545
1017,0.1545
1018,0.1588
1019,0.1595
1020,0.1565
1021,0.1610
1022,0.1612
1023,0.1607
1024,0.1605
1025,0.1502
1026,0.1587
1027,0.1633
1028,0.1606
1029,0.1680
1030,0.1595
1031,0.1599
1032,0.1691
1033,0.1733
1034,0.1709
1035,0.1568
1036,0.1629
1037,0.1682
1038,0.1787
1039,0.2195
1040,0.2430
1041,0.3075
