400,0.2495
401,0.2570
402,0.2611
403,0.2653
404,0.2701
405,0.2795
406,0.2823
407,0.2890
408,0.2944
409,0.2983
410,0.3047
411,0.3093
412,0.3111
413,0.3157
414,0.3221
415,0.3239
416,0.3274
417,0.3304
418,0.3371
419,0.3398
420,0.3441
421,0.3493
422,0.3545
423,0.3569
424,0.3578
425,0.3619
426,0.3664
427,0.3694
428,0.3707
429,0.3726
430,0.3733
431,0.3740
432,0.3742
433,0.3764
434,0.3789
435,0.3789
436,0.3791
437,0.3815
438,0.3836
439,0.3855
440,0.3889
441,0.3901
442,0.3934
443,0.3946
444,0.3980
445,0.3987
446,0.4007
447,0.4009
448,0.4024
449,0.4023
450,0.4015
451,0.4015
452,0.4017
453,0.4026
454,0.4016
455,0.4022
456,0.4019
457,0.4010
458,0.4018
459,0.4015
460,0.3994
461,0.3975
462,0.3952
463,0.3937
464,0.3919
465,0.3914
466,0.3910
467,0.3901
468,0.3892
469,0.3884
470,0.3880
471,0.3867
472,0.3849
473,0.3832
474,0.3809
475,0.3786
476,0.3767
477,0.3745
478,0.3726
479,0.3702
480,0.3692
481,0.3676
482,0.3651
483,0.3628
484,0.3607
485,0.3583
486,0.3558
487,0.3527
488,0.3499
489,0.3478
490,0.3449
491,0.3424
492,0.3399
493,0.3373
494,0.3346
495,0.3334
496,0.3310
497,0.3288
498,0.3262
499,0.3237
500,0.3201
501,0.3178
502,0.3152
503,0.3112
504,0.3080
505,0.3053
506,0.3022
507,0.2978
508,0.2951
509,0.2923
510,0.2878
511,0.2844
512,0.2813
513,0.2773
514,0.2746
515,0.2715
516,0.2686
517,0.2638
518,0.2606
519,0.2576
520,0.2534
521,0.2500
522,0.2468
523,0.2425
524,0.2394
525,0.2367
526,0.2327
527,0.2294
528,0.2262
529,0.2234
530,0.2189
531,0.2157
532,0.2124
533,0.2078
534,0.2042
535,0.2012
536,0.1962
537,0.1925
538,0.1889
539,0.1835
540,0.1800
541,0.1763
542,0.1709
543,0.1673
544,0.1642
545,0.1596
546,0.1567
547,0.1544
548,0.1503
549,0.1479
550,0.1458
551,0.1435
552,0.1400
553,0.1376
554,0.1351
555,0.1315
556,0.1293
557,0.1265
558,0.1228
559,0.1203
560,0.1177
561,0.1140
562,0.1118
563,0.1093
564,0.1059
565,0.1039
566,0.1017
567,0.0986
568,0.0965
569,0.0947
570,0.0918
571,0.0900
572,0.0880
573,0.0852
574,0.0832
575,0.0805
576,0.0786
577,0.0765
578,0.0740
579,0.0723
580,0.0706
581,0.0683
582,0.0668
583,0.0656
584,0.0638
585,0.0627
586,0.0614
587,0.0596
588,0.0586
589,0.0577
590,0.0562
591,0.0551
592,0.0544
593,0.0532
594,0.0525
595,0.0515
596,0.0508
597,0.0503
598,0.0496
599,0.0493
600,0.0487
601,0.0481
602,0.0478
603,0.0475
604,0.0473
605,0.0470
606,0.0467
607,0.0461
608,0.0455
609,0.0450
610,0.0448
611,0.0445
612,0.0444
613,0.0445
614,0.0450
615,0.0457
616,0.0465
617,0.0477
618,0.0484
619,0.0492
620,0.0503
621,0.0510
622,0.0514
623,0.0526
624,0.0533
625,0.0541
626,0.0548
627,0.0554
628,0.0567
629,0.0577
630,0.0586
631,0.0599
632,0.0606
633,0.0622
634,0.0633
635,0.0644
636,0.0659
637,0.0667
638,0.0676
639,0.0693
640,0.0706
641,0.0721
642,0.0734
643,0.0747
644,0.0765
645,0.0778
646,0.0797
647,0.0808
648,0.0821
649,0.0842
650,0.0854
651,0.0870
652,0.0881
653,0.0896
654,0.0916
655,0.0929
656,0.0948
657,0.0962
658,0.0977
659,0.1001
660,0.1017
661,0.1040
662,0.1054
663,0.1070
664,0.1093
665,0.1108
666,0.1128
667,0.1145
668,0.1155
669,0.1175
670,0.1188
671,0.1207
672,0.1223
673,0.1235
674,0.1259
675,0.1273
676,0.1294
677,0.1310
678,0.1338
679,0.1355
680,0.1367
681,0.1391
682,0.1406
683,0.1428
684,0.1444
685,0.1467
686,0.1479
687,0.1490
688,0.1509
689,0.1526
690,0.1548
691,0.1563
692,0.1577
693,0.1596
694,0.1610
695,0.1633
696,0.1649
697,0.1666
698,0.1677
699,0.1699
700,0.1715
701,0.1731
702,0.1754
703,0.1770
704,0.1794
705,0.1808
706,0.1826
707,0.1838
708,0.1850
709,0.1864
710,0.1876
711,0.1895
712,0.1911
713,0.1930
714,0.1945
715,0.1965
716,0.1979
717,0.1994
718,0.2009
719,0.2023
720,0.2042
721,0.2052
722,0.2069
723,0.2083
724,0.2103
725,0.2116
726,0.2135
727,0.2145
728,0.2156
729,0.2175
730,0.2191
731,0.2205
732,0.2218
733,0.2231
734,0.2237
735,0.2253
736,0.2266
737,0.2279
738,0.2291
739,0.2306
740,0.2315
741,0.2323
742,0.2335
743,0.2347
744,0.2356
745,0.2363
746,0.2377
747,0.2386
748,0.2405
749,0.2420
750,0.2441
751,0.2453
752,0.2474
753,0.2484
754,0.2498
755,0.2511
756,0.2524
757,0.2533
758,0.2542
759,0.2546
760,0.2550
761,0.2562
762,0.2567
763,0.2577
764,0.2587
765,0.2603
766,0.2608
767,0.2625
768,0.2635
769,0.2656
770,0.2667
771,0.2674
772,0.2679
773,0.2687
774,0.2693
775,0.2706
776,0.2719
777,0.2728
778,0.2734
779,0.2742
780,0.2749
781,0.2766
782,0.2776
783,0.2777
784,0.2779
785,0.2789
786,0.2791
787,0.2802
788,0.2805
789,0.2813
790,0.2819
791,0.2826
792,0.2833
793,0.2827
794,0.2837
795,0.2844
796,0.2848
797,0.2853
798,0.2857
799,0.2862
800,0.2879
801,0.2889
802,0.2898
803,0.2897
804,0.2903
805,0.2912
806,0.2924
807,0.2927
808,0.2936
809,0.2941
810,0.2945
811,0.2945
812,0.2950
813,0.2954
814,0.2961
815,0.2957
816,0.2953
817,0.2966
818,0.2977
819,0.2990
820,0.2990
821,0.3009
822,0.3020
823,0.3033
824,0.3037
825,0.3038
826,0.3041
827,0.3048
828,0.3051
829,0.3051
830,0.3062
831,0.3058
832,0.3067
833,0.3073
834,0.3082
835,0.3077
836,0.3079
837,0.3074
838,0.3080
839,0.3089
840,0.3092
841,0.3090
842,0.3096
843,0.3107
844,0.3115
845,0.3118
846,0.3114
847,0.3110
848,0.3099
849,0.3101
850,0.3093
851,0.3095
852,0.3095
853,0.3088
854,0.3107
855,0.3121
856,0.3126
857,0.3122
858,0.3124
859,0.3125
860,0.3139
861,0.3137
862,0.3140
863,0.3147
864,0.3156
865,0.3166
866,0.3178
867,0.3181
868,0.3182
869,0.3179
870,0.3178
871,0.3177
872,0.3175
873,0.3158
874,0.3154
875,0.3147
876,0.3148
877,0.3143
878,0.3141
879,0.3147
880,0.3153
881,0.3153
882,0.3143
883,0.3144
884,0.3141
885,0.3147
886,0.3132
887,0.3123
888,0.3122
889,0.3126
890,0.3127
891,0.3130
892,0.3118
893,0.3117
894,0.3135
895,0.3137
896,0.3155
897,0.3152
898,0.3157
899,0.3170
900,0.3168
901,0.3174
902,0.3172
903,0.3177
904,0.3165
905,0.3170
906,0.3167
907,0.3172
908,0.3161
909,0.3170
910,0.3163
911,0.3163
912,0.3161
913,0.3147
914,0.3144
915,0.3138
916,0.3142
917,0.3142
918,0.3133
919,0.3143
920,0.3163
921,0.3163
922,0.3177
923,0.3160
924,0.3172
925,0.3181
926,0.3187
927,0.3189
928,0.3210
929,0.3194
930,0.3193
931,0.3185
932,0.3144
933,0.3117
934,0.3111
935,0.3091
936,0.3075
937,0.3033
938,0.3010
939,0.3052
940,0.3065
941,0.3021
942,0.3014
943,0.3022
944,0.3080
945,0.3016
946,0.2944
947,0.2957
948,0.2941
949,0.2972
950,0.2901
951,0.2883
952,0.2906
953,0.2925
954,0.2941
955,0.2985
956,0.2977
957,0.2946
958,0.3016
959,0.3027
960,0.3002
961,0.2986
962,0.2965
963,0.2972
964,0.3015
965,0.2962
966,0.2983
967,0.3017
968,0.3009
969,0.2973
970,0.2985
971,0.3029
972,0.3052
973,0.3078
974,0.3090
975,0.3102
976,0.3124
977,0.3137
978,0.3076
979,0.3062
980,0.3022
981,0.2990
982,0.2955
983,0.2977
984,0.2921
985,0.2945
986,0.2971
987,0.2966
988,0.2969
989,0.3014
990,0.2948
991,0.3024
992,0.2995
993,0.2955
994,0.2943
995,0.2906
996,0.2863
997,0.2882
998,0.2833
999,0.2824
1000,0.2812
1001,0.2809
1002,0.2798
1003,0.2793
1004,0.2768
1005,0.2807
1006,0.2789
1007,0.2762
1008,0.2743
1009,0.2757
1010,0.2716
1011,0.2772
1012,0.2822
1013,0.2853
1014,0.2865
1015,0.2827
1016,0.2846
1017,0.2908
1018,0.2870
1019,0.2708
1020,0.2678
1021,0.2699
1022,0.2792
1023,0.2660
1024,0.2641
1025,0.2642
1026,0.2797
1027,0.2843
1028,0.2810
1029,0.2759
1030,0.2734
1031,0.2661
1032,0.2682
1033,0.2755
1034,0.2687
1035,0.2658
1036,0.2762
1037,0.2785
1038,0.2713
1039,0.2847
1040,0.1768
1041,0.2285
